1078
1086
1156
1209
1260
1279
1336
1373
1398
1404
1415
1319
1271
1222
1172
1125
1116
1118
1125
1132
1158
1212
1279
1390
1413
1416
1420
1412
1394
1346
1229
1186
1142
1125
1092
1074
1090
1151
1200
1263
1318
1356
1383
1402
1408
1368
1308
1263
1241
1194
1126
1095
1075
1072
1103
1138
1196
1314
1362
1390
1400
1388
1370
1363
1248
1190
1135
1093
1063
1055
1042
1085
1135
1202
1265
1318
1340
1359
1368
1362
1346
1306
1255
1204
1157
1097
1079
1076
1082
1109
1156
1207
1333
1358
1378
1404
1403
1373
1279
1222
1183
1141
1111
1096
1078
1077
1108
1167
1221
1279
1341
1387
1409
1405
1391
1358
1319
1279
1240
1156
1136
1138
1159
1178
1230
1290
1435
1528
1599
1640
1668
1685
1676
1540
1453
1364
1300
1263
1222
1188
1145
1149
1164
1180
1212
1261
1321
1330
1336
1337
1303
1261
1210
1094
1055
1062
1049
1044
1023
1068
1183
1239
1290
1327
1364
1382
1393
1336
1278
1234
1191
1148
1110
1071
1021
1023
1061
1128
1190
1259
1309
1365
1370
1378
1374
1341
1296
1244
1134
1100
1085
1071
1067
1055
1108
1161
1231
1279
1322
1343
1357
1362
1357
1326
1279
1231
1178
1146
1097
1076
1063
1085
1106
1158
1244
1366
1394
1405
1396
1383
1351
1307
1200
1150
1105
1093
1091
1072
1076
1167
1219
1274
1311
1348
1381
1407
1424
1395
1348
1278
1207
1151
1084
1069
1060
1064
1102
1156
1210
1351
1413
1442
1449
1439
1408
1365
1240
1182
1136
1109
1105
1108
1103
1145
1189
1239
1290
1343
1391
1408
1416
1398
1374
1336
1291
1232
1176
1114
1100
1095
1107
1138
1188
1240
1347
1389
1405
1418
1425
1429
1334
1279
1231
1188
1159
1149
1128
1116
1133
1175
1246
1311
1370
1404
1422
1423
1412
1376
1334
1295
1241
1151
1133
1102
1097
1113
1151
1214
1355
1390
1392
1409
1414
1438
1447
1370
1311
1255
1199
1172
1151
1124
1130
1171
1220
1271
1325
1379
1461
1477
1466
1448
1408
1346
1295
1175
1136
1120
1107
1104
1110
1145
1260
1319
1369
1402
1414
1448
1439
1381
1319
1262
1193
1134
1087
1073
1062
1068
1099
1143
1190
1247
1313
1369
1379
1365
1350
1316
1269
1210
1109
1076
1061
1055
1023
1023
1124
1170
1231
1279
1301
1314
1336
1354
1326
1269
1211
1149
1095
1081
1041
1023
1023
1082
1151
1199
1244
1325
1351
1371
1369
1348
1303
1247
1140
1092
1055
1023
1018
1023
1042
1132
1188
1235
1279
1321
1356
1376
1369
1320
1257
1199
1132
1087
1023
1023
1040
1062
1098
1151
1212
1335
1367
1385
1382
1372
1360
1306
1223
1158
1118
1093
1076
1055
1047
1102
1164
1221
1273
1302
1327
1360
1383
1375
1325
1272
1222
1175
1130
1069
1048
1052
1071
1127
1168
1220
1311
1347
1377
1387
1394
1380
1279
1246
1188
1130
1095
1074
1065
1063
1115
1168
1242
1309
1341
1360
1373
1373
1375
1343
1302
1252
1183
1086
1068
1071
1068
1095
1135
1171
1270
1327
1362
1391
1405
1396
1396
1279
1214
1151
1126
1108
1098
1077
1064
1103
1159
1224
1277
1317
1380
1383
1397
1386
1356
1311
1233
1117
1081
1060
1055
1063
1081
1135
1249
1302
1343
1369
1378
1385
1408
1343
1295
1235
1172
1126
1097
1070
1052
1071
1127
1189
1247
1298
1336
1374
1389
1404
1384
1342
1302
1257
1145
1103
1072
1055
1053
1079
1172
1238
1298
1351
1388
1391
1390
1381
1338
1279
1231
1180
1141
1093
1056
1063
1094
1133
1189
1249
1295
1380
1401
1398
1387
1353
1314
1279
1203
1146
1105
1091
1072
1084
1111
1190
1240
1294
1335
1367
1381
1390
1373
1341
1279
1217
1159
1102
1087
1078
1072
1089
1134
1183
1247
1352
1389
1396
1391
1384
1363
1334
1236
1183
1125
1090
1074
1068
1065
1141
1195
1252
1295
1349
1386
1413
1410
1380
1323
1259
1204
1158
1131
1095
1069
1061
1077
1143
1197
1240
1342
1365
1391
1408
1405
1374
1299
1252
1209
1157
1051
1078
1055
1080
1145
1211
1252
1311
1357
1395
1422
1423
1394
1339
1271
1206
1151
1097
1072
1055
1068
1093
1148
1213
1298
1354
1394
1404
1409
1401
1388
1303
1257
1192
1139
1095
1054
1039
1103
1148
1199
1266
1320
1375
1418
1422
1415
1395
1360
1321
1279
1177
1145
1115
1090
1082
1107
1151
1263
1318
1372
1407
1429
1426
1425
1334
1279
1235
1167
1114
1107
1108
1117
1124
1148
1190
1245
1305
1346
1410
1412
1409
1377
1311
1236
1166
1084
1079
1063
1048
1045
1075
1186
1243
1310
1346
1383
1405
1413
1373
1316
1260
1211
1157
1118
1092
1061
1064
1096
1150
1193
1249
1295
1342
1366
1376
1392
1367
1320
1279
1173
1119
1083
1075
1075
1076
1112
1197
1242
1300
1360
1390
1397
1381
1356
1327
1279
1222
1165
1136
1132
1125
1102
1094
1140
1206
1279
1413
1512
1508
1532
1543
1536
1513
1458
1431
1405
1381
1346
1320
1304
1325
1343
1373
1408
1431
1455
1456
1412
1358
1305
1243
1167
1090
1052
1016
1007
1007
1055
1116
1165
1213
1301
1338
1360
1378
1371
1339
1260
1203
1139
1087
1049
1023
1023
1083
1128
1177
1228
1276
1322
1343
1354
1384
1360
1311
1254
1183
1135
1079
1059
1023
1023
1085
1138
1200
1315
1346
1373
1382
1383
1371
1327
1231
1189
1149
1114
1099
1087
1063
1099
1149
1202
1263
1317
1366
1409
1409
1390
1349
1304
1256
1209
1111
1074
1073
1071
1070
1095
1140
1259
1325
1363
1374
1391
1409
1410
1334
1268
1206
1151
1117
1088
1078
1092
1135
1176
1223
1268
1311
1369
1421
1424
1406
1377
1335
1279
1220
1132
1100
1071
1061
1069
1101
1225
1294
1357
1399
1402
1414
1412
1392
1358
1306
1243
1189
1150
1181
1103
1117
1146
1193
1238
1271
1318
1391
1408
1420
1416
1382
1327
1263
1164
1141
1128
1112
1117
1127
1149
1269
1323
1370
1414
1430
1439
1455
1439
1373
1295
1222
1160
1123
1101
1112
1135
1165
1202
1254
1307
1413
1437
1445
1452
1439
1405
1360
1264
1191
1144
1131
1123
1126
1148
1214
1265
1320
1379
1416
1439
1455
1455
1430
1378
1327
1272
1211
1162
1116
1106
1114
1149
1138
1236
1279
1378
1413
1446
1456
1454
1415
1279
1228
1174
1144
1122
1100
1081
1126
1180
1227
1279
1334
1360
1382
1401
1390
1352
1279
1226
1172
1124
1052
1023
1019
1023
1077
1130
1180
1311
1343
1342
1348
1354
1352
1333
1223
1157
1095
1061
1023
1023
1023
1060
1113
1159
1208
1279
1332
1355
1359
1342
1293
1239
1191
1142
1082
1054
1023
1043
1054
1082
1130
1216
1275
1319
1279
1356
1351
1350
1275
1223
1162
1114
1075
1050
1023
1023
1059
1117
1175
1243
1304
1349
1360
1355
1354
1319
1279
1229
1173
1068
1047
1055
1074
1093
1131
1203
1253
1306
1347
1374
1376
1368
1325
1279
1250
1190
1139
1103
1084
1049
1047
1086
1144
1209
1274
1319
1379
1393
1394
1388
1342
1298
1236
1117
1084
1071
1055
1056
1069
1109
1196
1261
1319
1350
1368
1375
1383
1375
1330
1260
1173
1109
1072
1074
1066
1070
1105
1151
1202
1270
1351
1366
1375
1381
1380
1349
1303
1203
1154
1118
1095
1083
1066
1064
1160
1227
1279
1325
1355
1376
1399
1362
1311
1262
1226
1182
1139
1099
1080
1082
1093
1127
1175
1222
1268
1333
1362
1393
1409
1398
1354
1258
1190
1138
1098
1075
1060
1052
1124
1189
1234
1279
1333
1372
1392
1399
1375
1322
1279
1223
1175
1130
1085
1076
1074
1081
1120
1165
1214
1333
1376
1391
1398
1404
1390
1360
1261
1191
1124
1086
1071
1080
1081
1121
1165
1229
1296
1342
1368
1370
1383
1391
1359
1304
1239
1169
1093
1071
1053
1052
1077
1119
1170
1279
1330
1369
1401
1415
1412
1389
1294
1251
1196
1133
1087
1073
1060
1100
1133
1180
1220
1279
1336
1380
1403
1386
1379
1347
1298
1244
1182
1080
1066
1062
1053
1065
1116
1240
1311
1367
1394
1405
1412
1399
1353
1303
1246
1194
1132
1087
1064
1069
1094
1143
1190
1240
1301
1357
1408
1427
1423
1390
1340
1279
1234
1128
1086
1064
1063
1078
1107
1151
1238
1279
1340
1366
1382
1398
1404
1342
1279
1213
1151
1103
1071
1055
1077
1109
1151
1203
1246
1302
1390
1418
1423
1409
1375
1328
1279
1202
1151
1109
1076
1073
1081
1095
1188
1248
1315
1365
1397
1407
1404
1380
1368
1339
1279
1218
1170
1142
1094
1100
1116
1151
1210
1260
1309
1396
1416
1426
1426
1400
1351
1251
1191
1144
1120
1094
1081
1080
1151
1206
1271
1320
1350
1364
1389
1400
1381
1328
1268
1212
1146
1102
1077
1069
1054
1063
1100
1171
1255
1364
1374
1383
1378
1378
1380
1342
1225
1165
1115
1085
1075
1069
1066
1122
1164
1216
1293
1340
1370
1388
1387
1374
1337
1235
1237
1183
1096
1079
1071
1069
1087
1144
1191
1320
1360
1380
1390
1388
1379
1356
1276
1224
1166
1118
1089
1080
1097
1122
1180
1226
1266
1305
1341
1375
1437
1460
1458
1433
1397
1358
1328
1308
1322
1344
1359
1392
1416
1481
1508
1524
1524
1522
1508
1487
1374
1309
1207
1138
1094
1051
1022
1004
1023
1080
1143
1216
1279
1327
1348
1348
1357
1329
1279
1236
1182
1084
1066
1067
1068
1051
1071
1114
1225
1279
1326
1375
1385
1390
1384
1308
1252
1199
1150
1111
1087
1023
1023
1064
1114
1164
1223
1269
1362
1386
1396
1391
1381
1335
1279
1151
1106
1080
1069
1058
1062
1103
1194
1256
1311
1344
1366
1391
1398
1359
1305
1256
1197
1149
1114
1100
1073
1064
1100
1151
1206
1258
1311
1380
1405
1412
1406
1381
1332
1214
1178
1138
1118
1100
1099
1086
1131
1214
1233
1311
1369
1395
1405
1412
1380
1349
1279
1234
1192
1151
1084
1068
1064
1101
1151
1205
1266
1373
1399
1420
1433
1413
1378
1340
1242
1183
1151
1128
1124
1119
1124
1180
1226
1278
1340
1404
1432
1448
1423
1392
1343
1311
1258
1200
1112
1090
1089
1103
1138
1191
1257
1352
1390
1415
1434
1456
1455
1415
1287
1217
1178
1141
1135
1127
1130
1143
1178
1232
1291
1347
1397
1437
1463
1460
1423
1376
1320
1263
1205
1147
1125
1120
1141
1176
1219
1324
1375
1420
1437
1442
1450
1450
1372
1320
1279
1220
1178
1158
1144
1118
1133
1176
1240
1303
1353
1392
1449
1463
1467
1445
1375
1324
1268
1151
1119
1087
1078
1084
1125
1173
1276
1331
1362
1395
1417
1402
1378
1307
1262
1205
1144
1094
1064
1053
1062
1091
1135
1169
1222
1279
1346
1353
1357
1344
1316
1272
1158
1087
1050
1023
1023
1023
1023
1063
1156
1216
1278
1323
1352
1360
1343
1279
1235
1204
1154
1103
1071
1047
1023
1023
1060
1106
1159
1216
1279
1343
1356
1351
1347
1322
1271
1159
1114
1087
1060
1044
1046
1053
1118
1175
1236
1300
1335
1358
1370
1365
1330
1279
1249
1183
1126
1090
1060
1055
1064
1098
1140
1183
1254
1359
1389
1381
1373
1361
1316
1254
1167
1122
1092
1070
1047
1023
1023
1144
1194
1252
1306
1347
1376
1394
1400
1371
1314
1262
1199
1137
1063
1055
1064
1073
1113
1139
1199
1298
1346
1385
1414
1419
1415
1377
1245
1183
1124
1086
1073
1078
1079
1111
1145
1194
1262
1319
1354
1377
1399
1392
1357
1305
1259
1209
1145
1071
1069
1050
1052
1086
1145
1266
1321
1354
1372
1383
1400
1386
1295
1239
1196
1161
1120
1094
1077
1063
1101
1160
1210
1253
1303
1347
1390
1405
1390
1350
1300
1234
1172
1087
1073
1070
1080
1095
1132
1183
1254
1308
1362
1392
1415
1423
1394
1308
1241
1178
1117
1077
1068
1087
1099
1123
1176
1241
1300
1354
1402
1398
1391
1373
1330
1279
1239
1140
1106
1086
1067
1061
1071
1104
1223
1274
1330
1364
1387
1402
1422
1366
1303
1239
1183
1136
1100
1086
1065
1078
1111
1166
1228
1279
1330
1375
1382
1388
1380
1353
1314
1198
1132
1102
1095
1083
1064
1072
1178
1239
1295
1352
1380
1383
1396
1389
1350
1296
1244
1195
1149
1116
1078
1068
1074
1113
1159
1212
1271
1350
1365
1374
1402
1404
1376
1321
1206
1151
1123
1100
1087
1083
1092
1173
1232
1291
1341
1366
1380
1401
1382
1348
1294
1246
1196
1151
1084
1071
1068
1086
1132
1180
1232
1367
1405
1410
1414
1406
1398
1366
1245
1183
1127
1106
1086
1083
1087
1142
1202
1253
1306
1370
1406
1427
1441
1433
1392
1335
1267
1200
1147
1090
1076
1083
1094
1126
1180
1279
1351
1385
1391
1389
1383
1367
1299
1253
1183
1132
1109
1087
1088
1078
1112
1156
1204
1257
1302
1335
1378
1391
1373
1332
1279
1231
1159
1110
1109
1101
1086
1085
1119
1174
1279
1328
1359
1381
1380
1376
1381
1302
1252
1180
1124
1094
1085
1079
1077
1102
1154
1225
1279
1335
1383
1409
1418
1406
1354
1279
1222
1123
1096
1087
1076
1067
1079
1117
1231
1309
1362
1398
1422
1413
1399
1343
1303
1257
1207
1169
1160
1189
1232
1246
1295
1353
1434
1514
1588
1668
1657
1615
1557
1493
1425
1294
1231
1180
1125
1093
1060
1050
1114
1151
1207
1263
1304
1326
1335
1310
1273
1223
1168
1124
1107
1085
1072
1055
1064
1108
1162
1213
1264
1348
1379
1402
1404
1380
1330
1279
1154
1112
1074
1059
1050
1055
1063
1159
1216
1274
1319
1353
1372
1389
1358
1314
1270
1212
1159
1113
1073
1065
1059
1068
1104
1147
1199
1329
1401
1432
1434
1422
1390
1338
1204
1149
1116
1103
1094
1088
1074
1102
1151
1223
1292
1350
1392
1400
1403
1387
1339
1279
1231
1176
1120
1081
1069
1066
1087
1124
1178
1302
1348
1382
1417
1371
1415
1383
1279
1240
1196
1151
1110
1083
1050
1096
1159
1219
1274
1327
1375
1408
1437
1427
1393
1349
1292
1246
1205
1128
1122
1112
1102
1122
1173
1221
1343
1379
1400
1419
1440
1436
1399
1279
1242
1206
1161
1130
1105
1109
1137
1183
1229
1279
1342
1387
1426
1448
1436
1408
1362
1303
1248
1140
1115
1103
1109
1110
1130
1163
1268
1334
1398
1416
1430
1436
1435
1367
1308
1263
1236
1207
1172
1138
1124
1149
1202
1267
1311
1362
1404
1436
1442
1453
1442
1396
1340
1218
1176
1151
1143
1138
1149
1151
1236
1291
1347
1396
1423
1433
1446
1444
1392
1326
1271
1212
1166
1151
1106
1126
1143
1176
1222
1279
1342
1415
1420
1418
1404
1380
1334
1279
1167
1114
1084
1060
1043
1023
1053
1164
1237
1295
1330
1341
1353
1342
1323
1269
1226
1183
1133
1077
1023
1058
1013
1023
1084
1150
1207
1308
1332
1352
1333
1318
1304
1262
1149
1093
1061
1023
1023
1019
1023
1098
1143
1192
1254
1279
1318
1352
1364
1342
1295
1237
1175
1117
1074
1023
1023
1023
1058
1114
1151
1276
1329
1366
1373
1359
1340
1316
1247
1194
1127
1084
1056
1023
1045
1084
1130
1183
1238
1291
1337
1363
1391
1380
1342
1289
1244
1189
1135
1072
1058
1060
1072
1097
1148
1205
1276
1316
1346
1370
1370
1369
1338
1263
1197
1136
1100
1077
1055
1070
1098
1151
1191
1236
1278
1311
1366
1373
1373
1314
1276
1247
1222
1126
1081
1046
1052
1075
1104
1162
1257
1308
1359
1397
1402
1402
1396
1308
1254
1188
1130
1095
1079
1075
1083
1117
1168
1220
1269
1301
1328
1379
1390
1382
1349
1306
1271
1162
1107
1064
1053
1041
1059
1108
1208
1272
1335
1362
1372
1373
1368
1343
1295
1240
1180
1139
1111
1098
1072
1074
1110
1151
1210
1261
1308
1372
1399
1409
1410
1375
1333
1278
1165
1112
1072
1054
1052
1055
1082
1194
1268
1331
1369
1386
1386
1376
1359
1325
1266
1202
1144
1108
1066
1065
1076
1108
1175
1226
1278
1353
1372
1396
1412
1393
1354
1304
1191
1142
1111
1090
1073
1063
1069
1164
1221
1269
1333
1377
1388
1394
1384
1335
1290
1253
1151
1161
1122
1074
1061
1058
1104
1151
1217
1322
1364
1393
1414
1430
1423
1388
1263
1189
1128
1091
1071
1048
1023
1074
1136
1209
1279
1354
1390
1397
1398
1405
1373
1322
1262
1209
1148
1083
1060
1060
1072
1106
1151
1206
1320
1356
1373
1389
1394
1406
1380
1267
1205
1140
1098
1087
1090
1097
1122
1160
1201
1255
1319
1362
1395
1396
1397
1369
1303
1242
1188
1123
1106
1085
1117
1077
1123
1183
1279
1337
1367
1383
1403
1396
1390
1325
1266
1201
1141
1102
1087
1095
1102
1116
1151
1205
1279
1356
1388
1424
1423
1404
1371
1325
1276
1167
1123
1104
1104
1122
1126
1159
1240
1279
1336
1375
1398
1416
1421
1368
1317
1257
1192
1136
1108
1088
1095
1100
1128
1170
1223
1279
1343
1397
1414
1409
1393
1336
1279
1248
1151
1112
1073
1060
1064
1077
1116
1212
1257
1300
1339
1373
1392
1396
1346
1297
1252
1189
1138
1100
1052
1047
1053
1087
1148
1213
1279
1357
1383
1394
1407
1400
1354
1298
1195
1151
1126
1087
1070
1063
1063
1146
1204
1262
1316
1361
1393
1396
1383
1352
1306
1263
1205
1138
1087
1069
1070
1078
1110
1143
1212
1343
1382
1414
1453
1472
1483
1461
1396
1359
1331
1320
1318
1330
1328
1399
1439
1482
1525
1559
1566
1563
1522
1488
1415
1339
1264
1201
1151
1068
1023
1004
1002
1048
1108
1163
1263
1305
1340
1357
1369
1354
1306
1194
1151
1127
1087
1058
1044
1054
1099
1144
1200
1272
1327
1364
1380
1382
1351
1308
1261
1190
1126
1065
1054
1053
1039
1055
1092
1143
1278
1330
1370
1378
1391
1395
1371
1279
1217
1147
1098
1063
1051
1047
1069
1114
1176
1238
1290
1342
1379
1394
1406
1393
1347
1279
1228
1129
1095
1078
1064
1074
1104
1130
1228
1279
1322
1368
1391
1404
1413
1348
1279
1223
1170
1128
1116
1115
1095
1109
1127
1182
1233
1279
1342
1397
1406
1412
1399
1369
1318
1264
1157
1131
1113
1087
1078
1092
1135
1241
1308
1366
1396
1407
1409
1408
1378
1312
1255
1204
1151
1126
1094
1086
1097
1127
1180
1244
1303
1398
1429
1458
1441
1434
1396
1337
1215
1161
1118
1093
1071
1078
1104
1205
1258
1327
1392
1420
1437
1429
1398
1358
1324
1264
1207
1157
1134
1119
1119
1126
1161
1226
1276
1391
1419
1442
1468
1473
1439
1391
1279
1236
1189
1161
1136
1123
1138
1191
1247
1297
1354
1414
1454
1472
1471
1450
1408
1351
1293
1226
1177
1133
1134
1139
1151
1174
1212
1262
1387
1423
1439
1452
1444
1433
1378
1264
1200
1164
1139
1118
1096
1110
1151
1221
1277
1276
1374
1391
1386
1375
1354
1303
1259
1207
1144
1060
1050
1049
1054
1069
1109
1151
1277
1334
1365
1374
1364
1363
1337
1230
1182
1129
1085
1055
1023
1009
1023
1093
1140
1199
1264
1314
1367
1395
1370
1334
1279
1232
1175
1064
1045
1042
1045
1023
1023
1078
1191
1261
1321
1348
1364
1359
1350
1269
1220
1172
1127
1101
1074
1063
1023
1053
1105
1151
1202
1254
1296
1385
1397
1389
1356
1311
1257
1194
1095
1068
1060
1055
1039
1050
1102
1234
1301
1336
1345
1352
1351
1347
1319
1278
1207
1151
1099
1065
1045
1044
1068
1118
1172
1223
1279
1371
1394
1409
1402
1358
1306
1261
1160
1114
1072
1050
1069
1068
1098
1191
1245
1304
1355
1378
1380
1391
1372
1310
1260
1202
1151
1122
1100
1076
1063
1085
1122
1173
1236
1351
1381
1399
1394
1388
1362
1323
1223
1219
1124
1079
1059
1051
1061
1126
1183
1249
1307
1350
1377
1396
1405
1369
1315
1253
1199
1165
1128
1082
1067
1077
1102
1139
1178
1238
1355
1387
1391
1399
1398
1379
1337
1213
1151
1102
1094
1081
1071
1086
1135
1195
1261
1311
1348
1364
1387
1384
1373
1330
1278
1228
1177
1082
1060
1048
1054
1095
1156
1219
1309
1341
1354
1384
1408
1399
1370
1272
1206
1148
1104
1086
1086
1085
1116
1151
1198
1242
1301
1342
1362
1419
1413
1380
1327
1279
1230
1116
1081
1053
1047
1061
1090
1141
1246
1314
1365
1407
1414
1411
1404
1323
1261
1214
1161
1119
1098
1082
1103
1113
1148
1201
1266
1320
1356
1388
1407
1402
1373
1320
1271
1223
1127
1100
1065
1046
1055
1082
1139
1266
1318
1357
1380
1407
1412
1375
1328
1279
1234
1151
1106
1087
1068
1082
1116
1168
1229
1279
1265
1341
1359
1382
1395
1374
1325
1278
1173
1124
1108
1086
1084
1083
1108
1200
1253
1311
1360
1389
1402
1406
1379
1325
1270
1220
1159
1127
1111
1066
1065
1103
1156
1206
1263
1362
1390
1415
1417
1402
1378
1330
1224
1165
1123
1087
1063
1062
1072
1159
1202
1264
1331
1373
1392
1404
1404
1385
1343
1299
1240
1171
1119
1085
1091
1092
1118
1171
1227
1279
1388
1404
1415
1417
1439
1424
1378
1234
1167
1124
1088
1074
1075
1118
1168
1212
1270
1334
1381
1416
1431
1420
1384
1327
1275
1200
1142
1095
1080
1084
1087
1118
1159
1205
1311
1351
1372
1384
1391
1392
1360
1265
1206
1146
1114
1080
1051
1055
1110
1159
1207
1258
1304
1341
1374
1389
1388
1349
1294
1254
1200
1110
1081
1061
1053
1055
1100
1154
1276
1335
1380
1407
1407
1386
1372
1279
1259
1215
1211
1126
1101
1087
1093
1122
1159
1208
1262
1309
1354
1414
1422
1426
1389
1336
1276
1212
1138
1137
1136
1138
1168
1251
1325
1452
1526
1602
1662
1677
1673
1607
1541
1462
1371
1294
1226
1183
1135
1106
1122
1151
1202
1249
1279
1302
1311
1322
1330
1309
1278
1216
1121
1078
1023
1023
1020
1023
1066
1183
1249
1311
1358
1386
1395
1392
1334
1291
1231
1158
1102
1062
1044
1053
1067
1095
1137
1198
1266
1380
1392
1396
1401
1389
1338
1279
1171
1130
1108
1092
1069
1055
1064
1145
1200
1252
1316
1369
1378
1376
1380
1362
1310
1263
1208
1156
1123
1084
1082
1085
1126
1164
1202
1247
1356
1380
1398
1404
1397
1367
1311
1190
1138
1107
1086
1076
1068
1118
1166
1228
1279
1346
1378
1397
1404
1391
1348
1304
1259
1212
1154
1115
1097
1078
1102
1130
1176
1228
1346
1381
1407
1417
1418
1413
1380
1268
1213
1157
1112
1090
1071
1082
1148
1191
1239
1303
1362
1400
1419
1420
1414
1401
1366
1310
1262
1160
1140
1132
1128
1132
1151
1189
1297
1343
1382
1410
1423
1421
1398
1326
1270
1215
1167
1135
1116
1111
1128
1179
1231
1279
1350
1415
1438
1446
1434
1417
1374
1325
1269
1220
1159
1138
1127
1121
1136
1175
1239
1330
1370
1392
1418
1438
1449
1404
1349
1276
1218
1189
1173
1150
1133
1127
1168
1228
1279
1348
1398
1443
1446
1453
1436
1406
1365
1312
1194
1159
1129
1114
1110
1111
1149
1263
1330
1377
1405
1415
1422
1425
1356
1302
1255
1198
1154
1124
1100
1083
1099
1141
1172
1215
1266
1363
1377
1364
1348
1331
1279
1240
1136
1100
1074
1061
1049
1023
1046
1120
1177
1226
1268
1304
1339
1346
1320
1279
1248
1204
1135
1075
1023
1004
998
1013
1067
1122
1199
1277
1322
1364
1368
1348
1323
1263
1207
1164
1087
1064
1023
1021
1005
1023
1096
1200
1252
1305
1342
1375
1381
1374
1295
1250
1192
1137
1106
1072
1062
1060
1076
1126
1176
1210
1247
1304
1328
1341
1353
1342
1307
1262
1161
1122
1085
1055
1048
1054
1069
1180
1238
1301
1349
1375
1374
1367
1361
1336
1294
1231
1142
1093
1067
1055
1063
1023
1120
1159
1223
1278
1358
1361
1374
1379
1367
1322
1223
1163
1125
1095
1076
1060
1047
1123
1191
1250
1296
1351
1383
1403
1405
1388
1334
1277
1215
1158
1117
1069
1048
1046
1059
1108
1167
1223
1318
1346
1392
1406
1413
1388
1330
1205
1149
1107
1087
1068
1044
1055
1135
1182
1240
1292
1340
1371
1382
1380
1365
1336
1290
1240
1178
1098
1086
1080
1080
1099
1140
1189
1279
1329
1364
1383
1401
1402
1391
1290
1234
1167
1119
1086
1066
1066
1070
1112
1172
1238
1301
1353
1370
1394
1394
1390
1358
1309
1246
1181
1104
1090
1066
1046
1060
1107
1226
1291
1346
1374
1405
1421
1415
1318
1268
1223
1172
1126
1101
1082
1075
1088
1138
1187
1236
1307
1363
1394
1392
1398
1369
1323
1271
1231
1140
1110
1074
1054
1047
1068
1124
1251
1314
1366
1388
1387
1383
1371
1336
1295
1257
1200
1157
1126
1070
1051
1066
1112
1183
1262
1334
1409
1410
1397
1396
1387
1352
1307
1159
1117
1085
1067
1048
1042
1084
1191
1249
1311
1357
1389
1413
1418
1398
1345
1294
1233
1167
1114
1081
1049
1055
1080
1133
1188
1251
1307
1385
1414
1414
1407
1375
1311
1216
1170
1136
1109
1084
1070
1068
1151
1210
1279
1342
1365
1376
1383
1382
1356
1319
1267
1221
1167
1076
1095
1083
1072
1102
1151
1191
1253
1373
1398
1416
1426
1420
1391
1335
1231
1183
1161
1136
1135
1111
1095
1177
1233
1279
1338
1366
1382
1421
1432
1408
1351
1307
1248
1203
1122
1092
1079
1073
1090
1146
1196
1317
1360
1391
1404
1405
1401
1376
1279
1216
1156
1117
1086
1060
1023
1068
1130
1180
1239
1292
1335
1374
1401
1399
1364
1322
1271
1209
1144
1068
1049
1043
1047
1093
1135
1247
1298
1339
1366
1376
1377
1390
1322
1274
1204
1144
1099
1065
1073
1095
1129
1162
1203
1251
1296
1350
1419
1408
1388
1340
1294
1250
1197
1109
1095
1095
1096
1098
1123
1161
1295
1349
1382
1412
1426
1443
1461
1403
1372
1343
1325
1322
1331
1332
1337
1371
1403
1434
1480
1510
1545
1545
1539
1508
1461
1380
1298
1158
1085
1044
1021
1005
996
1018
1061
1194
1263
1308
1340
1359
1373
1379
1301
1241
1178
1123
1068
1042
1023
1046
1078
1119
1167
1222
1279
1327
1385
1388
1368
1337
1297
1238
1178
1098
1076
1064
1063
1061
1087
1143
1256
1306
1343
1349
1363
1375
1341
1302
1255
1186
1126
1087
1080
1079
1091
1104
1134
1180
1238
1308
1369
1374
1386
1391
1356
1300
1253
1161
1111
1083
1060
1061
1074
1095
1225
1275
1328
1369
1402
1406
1393
1279
1303
1263
1216
1162
1119
1106
1091
1103
1119
1162
1216
1276
1366
1381
1395
1404
1405
1371
1310
1205
1151
1122
1103
1090
1084
1094
1166
1216
1279
1347
1406
1437
1451
1417
1391
1340
1279
1216
1151
1114
1096
1087
1092
1124
1166
1216
1279
1384
1405
1421
1422
1423
1403
1343
1218
1174
1134
1119
1108
1104
1137
1201
1266
1334
1398
1422
1439
1439
1418
1386
1338
1271
1227
1183
1150
1131
1115
1107
1147
1211
1260
1359
1383
1410
1436
1451
1438
1406
1308
1252
1197
1172
1150
1130
1119
1156
1223
1268
1322
1372
1407
1422
1449
1446
1414
1367
1317
1259
1150
1120
1127
1145
1144
1182
1229
1338
1389
1423
1434
1436
1427
1419
1348
1301
1244
1198
1165
1122
1090
1085
1122
1180
1229
1279
1332
1359
1394
1401
1394
1344
1295
1245
1180
1078
1055
1023
1023
1023
1070
1117
1231
1278
1307
1343
1367
1391
1332
1264
1198
1143
1094
1062
1023
1023
1023
1069
1106
1161
1238
1279
1341
1333
1330
1324
1304
1274
1241
1119
1060
1021
1019
1023
1055
1106
1196
1261
1295
1322
1337
1349
1350
1317
1264
1205
1143
1101
1066
1043
1020
1023
1083
1125
1162
1224
1332
1365
1375
1378
1372
1327
1295
1173
1127
1077
1053
1044
1023
1055
1143
1191
1247
1301
1383
1356
1359
1360
1329
1279
1221
1161
1107
1078
1069
1066
1066
1102
1145
1206
1270
1347
1354
1364
1392
1383
1363
1301
1170
1114
1082
1069
1070
1055
1109
1159
1221
1279
1336
1370
1383
1403
1381
1322
1272
1231
1192
1163
1094
1073
1055
1069
1096
1138
1196
1332
1377
1389
1398
1408
1391
1334
1215
1163
1125
1111
1109
1090
1068
1090
1149
1216
1269
1310
1356
1393
1423
1391
1337
1279
1231
1193
1117
1099
1072
1062
1080
1110
1160
1279
1342
1387
1401
1399
1396
1373
1278
1229
1175
1127
1101
1091
1079
1081
1119
1151
1214
1277
1342
1388
1387
1378
1363
1340
1294
1256
1205
1100
1076
1061
1045
1061
1109
1164
1279
1351
1384
1403
1406
1381
1337
1302
1246
1185
1143
1110
1098
1073
1094
1133
1193
1242
1297
1343
1381
1393
1390
1366
1328
1279
1227
1125
1023
1069
1055
1064
1082
1141
1276
1337
1359
1369
1364
1374
1381
1346
1295
1239
1182
1127
1100
1080
1075
1082
1121
1175
1231
1279
1379
1399
1413
1401
1378
1325
1271
1171
1125
1095
1069
1063
1063
1074
1177
1263
1328
1371
1381
1392
1408
1405
1368
1315
1248
1169
1131
1121
1096
1098
1115
1149
1191
1231
1292
1364
1385
1386
1385
1362
1316
1279
1183
1122
1085
1064
1060
1064
1116
1172
1237
1307
1362
1391
1410
1407
1386
1335
1272
1217
1151
1099
1071
1076
1079
1093
1130
1174
1235
1364
1409
1425
1417
1394
1372
1332
1240
1181
1127
1100
1079
1083
1080
1151
1194
1251
1311
1351
1374
1389
1389
1375
1327
1279
1223
1167
1113
1107
1098
1076
1109
1150
1206
1310
1357
1388
1410
1417
1413
1383
1265
1203
1157
1116
1088
1078
1067
1080
1126
1172
1232
1303
1357
1437
1399
1405
1378
1331
1279
1233
1193
1113
1084
1074
1076
1104
1151
1199
1309
1351
1389
1408
1413
1398
1332
1308
1258
1200
1156
1122
1098
1124
1140
1172
1199
1242
1312
1364
1438
1445
1447
1408
1350
1295
1237
1124
1097
1070
1060
1063
1094
1150
1261
1318
1366
1407
1406
1402
1408
1334
1276
1215
1159
1119
1087
1068
1055
1076
1111
1163
1240
1303
1354
1395
1398
1398
1380
1335
1279
1164
1104
1066
1048
1044
1062
1098
1180
1271
1335
1371
1386
1391
1389
1367
1317
1266
1209
1150
1095
1071
1054
1054
1086
1140
1190
1249
1305
1366
1381
1383
1378
1348
1313
1276
1195
1135
1096
1074
1063
1068
1159
1206
1261
1327
1375
1408
1418
1431
1419
1399
1365
1338
1313
1310
1308
1321
1324
1350
1383
1422
1474
1583
1600
1607
1601
1565
1494
1408
1258
1190
1132
1023
1060
1043
1023
1076
1125
1188
1257
1313
1322
1338
1375
1355
1311
1252
1183
1127
1060
1040
1020
1022
1045
1103
1167
1278
1324
1347
1355
1355
1351
1320
1223
1167
1122
1109
1085
1057
1050
1065
1102
1159
1227
1279
1336
1359
1381
1383
1361
1310
1252
1194
1133
1071
1045
1023
1044
1079
1131
1190
1316
1364
1395
1411
1418
1406
1279
1244
1208
1166
1136
1104
1071
1023
1061
1123
1204
1279
1343
1386
1409
1410
1403
1384
1316
1272
1220
1134
1110
1103
1096
1092
1107
1139
1248
1323
1362
1387
1400
1394
1395
1349
1298
1244
1189
1140
1102
1075
1072
1102
1145
1188
1254
1326
1408
1425
1427
1411
1381
1333
1278
1173
1138
1104
1085
1082
1081
1121
1216
1264
1329
1383
1404
1418
1421
1396
1351
1299
1232
1174
1134
1111
1120
1116
1140
1182
1234
1279
1346
1348
1414
1415
1413
1384
1334
1306
1206
1163
1131
1118
1126
1142
1218
1261
1308
1360
1399
1429
1442
1441
1399
1347
1304
1250
1206
1176
1138
1128
1124
1151
1204
1261
1320
1406
1441
1452
1491
1493
1446
1378
1251
1189
1142
1127
1120
1124
1127
1208
1260
1321
1367
1405
1433
1432
1436
1407
1363
1321
1263
1208
1115
1095
1090
1106
1151
1204
1269
1342
1366
1388
1401
1398
1391
1349
1248
1191
1132
1090
1071
1060
1046
1093
1127
1170
1228
1279
1328
1350
1364
1361
1325
1279
1224
1160
1116
1064
1053
1023
1023
1071
1123
1174
1279
1316
1336
1343
1347
1331
1242
1204
1173
1133
1083
1023
1016
1023
1081
1114
1164
1225
1279
1337
1354
1353
1334
1309
1268
1220
1168
1076
1023
1023
1012
1022
1069
1123
1250
1302
1346
1356
1375
1380
1357
1276
1230
1176
1130
1085
1062
1049
1051
1074
1123
1190
1239
1303
1366
1378
1389
1381
1332
1278
1215
1104
1079
1073
1058
1046
1055
1085
1199
1240
1279
1332
1371
1392
1407
1343
1279
1223
1177
1136
1098
1082
1053
1093
1127
1176
1220
1270
1319
1373
1388
1404
1393
1357
1296
1236
1140
1116
1103
1087
1066
1073
1159
1214
1269
1318
1360
1381
1395
1370
1335
1276
1229
1177
1121
1074
1055
1069
1085
1123
1226
1236
1279
1338
1349
1378
1392
1401
1374
1312
1188
1135
1111
1086
1055
1067
1080
1173
1218
1264
1330
1364
1397
1423
1386
1334
1278
1226
1173
1111
1047
1023
1063
1082
1129
1190
1238
1321
1337
1354
1384
1401
1387
1349
1234
1172
1124
1103
1090
1078
1082
1134
1183
1224
1279
1351
1403
1412
1405
1382
1356
1301
1245
1178
1124
1072
1071
1076
1076
1116
1162
1213
1325
1349
1372
1388
1391
1383
1292
1247
1178
1132
1109
1087
1072
1079
1118
1177
1229
1279
1342
1380
1416
1413
1402
1346
1291
1233
1163
1079
1074
1072
1081
1087
1126
1172
1279
1336
1363
1392
1390
1407
1407
1279
1230
1166
1122
1115
1103
1098
1095
1140
1170
1237
1298
1335
1399
1403
1394
1380
1346
1292
1235
1134
1108
1087
1079
1078
1090
1142
1239
1303
1347
1374
1388
1395
1394
1332
1221
1232
1175
1131
1096
1073
1052
1087
1147
1209
1250
1305
1353
1386
1397
1410
1400
1351
1303
1242
1159
1125
1108
1087
1071
1072
1151
1198
1267
1327
1365
1392
1405
1378
1337
1279
1230
1179
1135
1098
1070
1090
1112
1156
1199
1248
1300
1387
1408
1407
1408
1374
1336
1279
1154
1111
1084
1081
1069
1055
1066
1159
1241
1322
1391
1422
1414
1411
1389
1342
1296
1240
1177
1127
1069
1068
1075
1102
1144
1197
1254
1355
1388
1409
1414
1408
1382
1330
1231
1177
1135
1109
1095
1086
1075
1129
1186
1245
1309
1346
1376
1398
1407
1401
1362
1324
1267
1208
1151
1094
1079
1083
1111
1167
1224
1279
1380
1405
1415
1421
1412
1375
1279
1225
1183
1141
1124
1107
1095
1109
1166
1223
1271
1317
1371
1404
1409
1395
1379
1338
1279
1229
1175
1102
1083
1066
1052
1067
1109
1221
1303
1355
1370
1385
1394
1382
1363
1277
1212
1148
1100
1075
1065
1060
1102
1151
1199
1242
1301
1351
1391
1407
1400
1382
1342
1279
1219
1103
1077
1065
1063
1065
1096
1142
1233
1279
1343
1364
1378
1388
1395
1326
1269
1202
1145
1111
1092
1088
1084
1094
1136
1199
1240
1302
1360
1412
1429
1444
1420
1372
1316
1274
1237
1246
1259
1275
1295
1327
1394
1523
1574
1614
1637
1576
1612
1526
1458
1388
1317
1242
1181
1135
1048
1023
1044
1084
1134
1193
1247
1327
1346
1354
1358
1343
1303
1259
1143
1086
1050
1023
1019
1023
1060
1151
1215
1268
1310
1330
1357
1367
1359
1300
1242
1198
1149
1102
1049
1023
1023
1055
1116
1172
1242
1350
1375
1398
1391
1374
1343
1295
1180
1117
1078
1063
1055
1048
1048
1134
1185
1252
1317
1343
1364
1372
1370
1350
1313
1278
1224
1159
1100
1066
1071
1084
1113
1161
1193
1240
1352
1388
1412
1397
1366
1324
1265
1226
1168
1124
1093
1083
1091
1080
1109
1161
1230
1310
1375
1406
1423
1417
1378
1330
1279
1232
1182
1111
1098
1097
1110
1131
1172
1215
1324
1367
1395
1424
1417
1409
1374
1293
1230
1174
1132
1110
1098
1100
1134
1181
1239
1301
1354
1386
1408
1413
1421
1390
1338
1279
1241
1148
1117
1095
1100
1111
1147
1184
1294
1346
1387
1421
1429
1434
1429
1350
1294
1241
1191
1151
1127
1111
1103
1138
1176
1227
1291
1340
1386
1445
1458
1456
1423
1365
1302
1239
1162
1147
1144
1127
1132
1167
1265
1325
1383
1419
1438
1448
1454
1431
1384
1322
1259
1215
1182
1167
1134
1120
1144
1193
1248
1311
1372
1424
1436
1443
1442
1409
1367
1303
1204
1158
1124
1114
1108
1106
1127
1166
1279
1343
1375
1386
1403
1420
1395
1349
1279
1218
1156
1108
1063
1055
1058
1085
1135
1179
1230
1325
1342
1359
1373
1359
1330
1276
1133
1085
1055
1023
1021
1015
1023
1123
1177
1223
1279
1331
1338
1350
1351
1304
1247
1197
1148
1103
1069
1023
1023
1023
1047
1103
1165
1222
1317
1334
1340
1353
1353
1317
1221
1179
1126
1082
1064
1044
1044
1071
1122
1166
1229
1274
1317
1343
1381
1378
1337
1275
1213
1151
1092
1050
1023
1023
1060
1103
1151
1206
1302
1333
1351
1363
1362
1358
1333
1243
1197
1130
1082
1058
1023
1023
1084
1135
1189
1239
1304
1355
1386
1372
1367
1351
1297
1244
1177
1083
1075
1055
1054
1061
1095
1159
1260
1316
1326
1353
1376
1384
1382
1304
1248
1203
1159
1130
1109
1079
1059
1100
1163
1216
1279
1352
1380
1398
1391
1378
1343
1289
1240
1183
1090
1056
1046
1058
1076
1129
1223
1268
1308
1336
1346
1365
1369
1358
1325
1275
1210
1146
1116
1079
1081
1087
1122
1176
1230
1278
1323
1351
1372
1377
1385
1352
1302
1255
1160
1137
1106
1082
1072
1078
1108
1208
1262
1316
1351
1381
1387
1393
1346
1279
1231
1173
1126
1098
1070
1075
1077
1112
1156
1202
1269
1362
1396
1408
1415
1396
1341
1279
1210
1160
1115
1087
1119
1062
1055
1146
1213
1279
1330
1365
1389
1397
1376
1348
1294
1255
1206
1164
1129
1074
1056
1062
1095
1141
1204
1279
1354
1375
1402
1407
1405
1369
1268
1205
1158
1120
1092
1086
1069
1112
1163
1222
1279
1341
1379
1395
1394
1392
1359
1311
1248
1183
1142
1087
1093
1087
1090
1119
1159
1201
1311
1343
1368
1399
1421
1416
1373
1252
1199
1164
1126
1098
1080
1071
1119
1167
1222
1277
1329
1371
1390
1395
1372
1349
1305
1237
1178
1101
1083
1076
1069
1076
1113
1159
1279
1345
1378
1380
1399
1416
1395
1304
1253
1188
1135
1103
1086
1079
1081
1114
1162
1230
1300
1367
1412
1422
1414
1393
1342
1301
1253
1198
1119
1103
1090
1087
1100
1124
1231
1293
1354
1397
1417
1416
1409
1343
1301
1247
1197
1130
1091
1076
1063
1083
1113
1168
1230
1279
1339
1400
1343
1404
1397
1373
1328
1271
1136
1085
1067
1050
1052
1076
1122
1230
1279
1334
1376
1404
1421
1418
1354
1292
1243
1195
1141
1096
1063
1070
1103
1148
1187
1232
1279
1368
1397
1418
1415
1400
1367
1317
1214
1164
1112
1093
1076
1084
1110
1217
1270
1325
1378
1399
1413
1422
1402
1362
1311
1258
1203
1151
1124
1095
1090
1104
1147
1202
1248
1311
1383
1392
1406
1412
1395
1347
1236
1182
1134
1108
1082
1079
1090
1179
1240
1265
1279
1318
1346
1362
1375
1359
1320
1279
1235
1182
1139
1060
1058
1075
1086
1110
1156
1208
1337
1373
1392
1399
1391
1369
1323
1251
1188
1139
1103
1077
1060
1060
1111
1171
1231
1293
1340
1359
1381
1387
1367
1316
1268
1217
1166
1108
1084
1058
1052
1068
1125
1185
1311
1354
1385
1408
1408
1417
1403
1310
1257
1196
1159
1147
1143
1195
1199
1275
1366
1453
1542
1591
1627
1669
1670
1648
1584
1508
1419
1333
1213
1175
1157
1138
1141
1172
1236
1275
1288
1302
1320
1330
1332
1277
1222
1172
1127
1098
1080
1061
1051
1085
1151
1181
1202
1244
1293
1353
1365
1343
1317
1279
1262
1208
1090
1068
1055
1066
1050
1064
1110
1219
1294
1353
1376
1381
1365
1350
1299
1261
1201
1149
1113
1070
1048
1055
1078
1126
1181
1236
1296
1353
1370
1386
1391
1372
1329
1279
1154
1120
1092
1072
1062
1061
1076
1173
1229
1290
1340
1377
1399
1410
1391
1342
1279
1237
1178
1135
1103
1068
1063
1086
1136
1178
1248
1311
1430
1436
1430
1422
1397
1340
1228
1173
1140
1111
1090
1072
1066
1168
1229
1279
1327
1362
1392
1413
1425
1404
1354
1301
1253
1196
1150
1110
1086
1093
1134
1180
1222
1260
1346
1380
1405
1466
1429
1415
1362
1242
1190
1143
1119
1103
1085
1084
1159
1206
1258
1316
1364
1404
1442
1434
1404
1361
1310
1263
1216
1128
1120
1115
1120
1150
1196
1238
1331
1375
1408
1428
1439
1436
1418
1329
1274
1220
1180
1148
1124
1115
1140
1197
1247
1306
1352
1407
1438
1495
1481
1450
1397
1343
1272
1211
1148
1140
1141
1143
1158
1190
1309
1373
1419
1432
1446
1454
1453
1382
1341
1279
1237
1201
1175
1146
1133
1145
1180
1233
1279
1336
1394
1432
1430
1420
1394
1342
1279
1213
1106
1087
1061
1061
1065
1080
1122
1253
1315
1358
1369
1365
1372
1367
1306
1251
1189
1116
1079
1048
991
991
994
1023
1165
1221
1267
1303
1335
1356
1352
1310
1255
1212
1167
1110
1055
1023
1006
1010
1045
1103
1164
1217
1270
1333
1350
1351
1348
1338
1295
1238
1108
1068
1043
1023
1021
1023
1055
1156
1221
1279
1324
1348
1367
1373
1340
1279
1230
1178
1133
1090
1055
1023
1023
1058
1116
1172
1239
1338
1354
1356
1359
1363
1351
1320
1228
1151
1091
1042
1023
1023
1023
1139
1180
1234
1292
1331
1350
1363
1366
1344
1301
1249
1186
1139
1108
1053
1045
1023
1074
1134
1202
1262
1359
1381
1382
1389
1384
1362
1275
1212
1158
1121
1091
1060
1054
1087
1136
1189
1243
1308
1341
1374
1399
1399
1363
1308
1261
1199
1140
1066
1048
1046
1060
1099
1150
1199
1320
1359
1383
1383
1384
1389
1357
1254
1198
1146
1110
1087
1081
1077
1096
1142
1201
1262
1323
1364
1405
1406
1400
1356
1298
1243
1197
1109
1087
1068
1062
1067
1101
1162
1291
1335
1358
1380
1380
1390
1386
1307
1253
1205
1145
1128
1093
1069
1062
1097
1145
1194
1262
1318
1360
1385
1389
1382
1359
1310
1272
1227
1130
1100
1079
1063
1066
1112
1205
1260
1317
1351
1364
1373
1372
1361
1332
1271
1201
1141
1095
1074
1068
1076
1114
1167
1219
1268
1325
1378
1387
1391
1378
1349
1315
1263
1148
1112
1097
1082
1079
1087
1121
1223
1267
1315
1352
1370
1390
1409
1362
1314
1238
1163
1102
1077
1087
1095
1097
1132
1179
1231
1279
1371
1383
1398
1416
1400
1358
1301
1193
1145
1119
1110
1098
1095
1092
1156
1213
1266
1318
1356
1382
1407
1412
1369
1311
1253
1190
1136
1099
1067
1066
1093
1130
1176
1224
1264
1354
1383
1401
1391
1396
1369
1273
1210
1142
1098
1085
1071
1070
1108
1151
1211
1279
1341
1375
1383
1378
1375
1349
1300
1244
1201
1151
1100
1079
1069
1075
1121
1167
1212
1317
1354
1381
1400
1406
1404
1381
1248
1192
1134
1109
1100
1087
1079
1111
1166
1240
1311
1365
1382
1390
1376
1354
1332
1294
1258
1207
1123
1105
1101
1102
1116
1158
1199
1279
1329
1356
1378
1408
1410
1394
1316
1279
1238
1191
1160
1132
1115
1104
1156
1219
1260
1298
1340
1372
1422
1423
1411
1364
1303
1253
1200
1112
1083
1064
1066
1073
1110
1224
1279
1342
1385
1415
1432
1439
1352
1278
1225
1159
1108
1086
1070
1066
1066
1102
1164
1231
1236
1332
1353
1368
1386
1380
1335
1276
1236
1130
1108
1082
1065
1066
1087
1137
1220
1262
1310
1342
1365
1375
1374
1324
1279
1240
1188
1143
1106
1073
1076
1095
1136
1178
1224
1279
1358
1381
1376
1372
1366
1324
1277
1197
1170
1149
1127
1118
1118
1119
1175
1215
1295
1348
1384
1400
1410
1432
1420
1391
1364
1333
1304
1290
1302
1314
1336
1391
1423
1462
1514
1555
1555
1540
1520
1492
1431
1279
1203
1146
1092
1063
1023
995
980
1019
1078
1238
1295
1327
1352
1359
1363
1338
1262
1196
1135
1087
1062
1050
1023
1061
1099
1140
1190
1252
1303
1354
1363
1372
1362
1335
1279
1225
1110
1082
1067
1063
1055
1075
1116
1207
1264
1317
1351
1351
1362
1369
1322
1279
1234
1187
1141
1102
1079
1055
1078
1128
1183
1239
1279
1323
1395
1408
1404
1374
1326
1279
1229
1126
1085
1069
1062
1063
1099
1191
1245
1279
1328
1359
1380
1390
1385
1353
1300
1247
1183
1131
1111
1097
1095
1101
1128
1170
1232
1297
1395
1409
1409
1396
1367
1335
1279
1191
1130
1100
1073
1061
1064
1096
1191
1253
1317
1375
1406
1415
1417
1395
1358
1298
1248
1206
1163
1110
1090
1078
1103
1157
1225
1279
1391
1419
1435
1434
1410
1386
1353
1274
1228
1170
1136
1117
1097
1087
1143
1216
1272
1321
1362
1383
1412
1433
1412
1380
1332
1274
1214
1164
1129
1123
1127
1138
1189
1243
1295
1407
1431
1442
1454
1452
1427
1325
1272
1222
1181
1151
1128
1119
1141
1186
1243
1305
1370
1430
1448
1447
1439
1432
1388
1335
1279
1214
1146
1120
1118
1127
1149
1178
1234
1366
1427
1449
1459
1460
1455
1439
1327
1266
1188
1142
1117
1103
1096
1130
1171
1225
1260
1255
1345
1393
1398
1397
1370
1314
1264
1219
1130
1102
1058
1023
1046
1071
1118
1217
1279
1328
1369
1383
1367
1359
1279
1232
1182
1117
1070
1042
1020
1004
1013
1079
1131
1199
1266
1306
1343
1343
1334
1320
1279
1241
1193
1093
1060
1043
1023
1023
1043
1120
1185
1263
1319
1338
1350
1343
1321
1269
1223
1164
1095
1068
1023
1014
993
1023
1093
1142
1200
1265
1325
1372
1380
1372
1348
1301
1257
1200
1071
1042
1023
1045
1047
1072
1120
1216
1278
1333
1354
1374
1383
1383
1303
1255
1193
1140
1097
1058
1023
1049
1078
1123
1165
1210
1273
1341
1410
1412
1399
1356
1307
1259
1149
1132
1123
1098
1076
1070
1087
1198
1257
1304
1336
1359
1367
1379
1351
1298
1248
1197
1139
1098
1080
1044
1023
1061
1112
1170
1234
1295
1389
1386
1378
1384
1375
1324
1263
1096
1122
1093
1071
1050
1055
1085
1196
1261
1308
1342
1361
1372
1374
1359
1320
1268
1207
1151
1112
1085
1063
1055
1077
1112
1176
1249
1371
1389
1399
1392
1384
1359
1311
1206
1157
1120
1089
1081
1060
1068
1165
1214
1266
1311
1343
1374
1399
1410
1379
1327
1262
1209
1151
1099
1060
1068
1076
1099
1129
1170
1303
1356
1384
1413
1430
1412
1372
1273
1206
1151
1108
1079
1062
1055
1073
1127
1183
1242
1301
1347
1364
1396
1401
1363
1324
1274
1220
1158
1087
1087
1077
1085
1112
1151
1206
1310
1353
1369
1386
1416
1415
1376
1253
1197
1150
1117
1090
1064
1055
1098
1156
1225
1279
1320
1354
1388
1398
1397
1369
1316
1263
1204
1095
1068
1057
1066
1081
1111
1158
1278
1335
1372
1397
1411
1404
1391
1307
1272
1204
1143
1098
1095
1091
1094
1112
1151
1196
1261
1323
1366
1415
1418
1405
1359
1298
1247
1151
1110
1086
1066
1067
1085
1124
1220
1279
1319
1350
1375
1391
1392
1357
1311
1254
1216
1168
1136
1115
1094
1087
1103
1130
1170
1231
1300
1398
1423
1416
1402
1368
1311
1248
1145
1110
1096
1085
1074
1074
1103
1186
1244
1299
1346
1370
1388
1381
1358
1327
1279
1225
1159
1108
1071
1079
1089
1122
1171
1218
1270
1368
1392
1404
1413
1449
1365
1319
1202
1151
1110
1085
1071
1079
1084
1172
1208
1260
1311
1365
1393
1412
1385
1346
1303
1261
1212
1165
1135
1092
1096
1098
1118
1162
1223
1353
1391
1413
1426
1439
1446
1398
1295
1229
1164
1126
1110
1097
1095
1115
1166
1235
1311
1363
1391
1402
1405
1407
1367
1314
1266
1208
1142
1081
1074
1079
1087
1121
1170
1220
1326
1359
1377
1383
1386
1385
1349
1243
1181
1128
1095
1069
1054
1050
1087
1129
1188
1263
1311
1355
1407
1398
1383
1336
1279
1229
1181
1098
1081
1076
1065
1087
1135
1173
1269
1334
1371
1401
1413
1408
1390
1301
1242
1183
1140
1095
1081
1079
1074
1104
1147
1191
1250
1304
1342
1399
1413
1406
1375
1314
1238
1146
1127
1112
1106
1109
1130
1183
1314
1388
1457
1503
1536
1565
1598
1613
1581
1537
1474
1404
1347
1292
1252
1193
1278
1303
1343
1368
1395
1388
1375
1355
1327
1274
1216
1151
1054
1023
1015
1004
1007
1023
1080
1198
1242
1295
1339
1367
1382
1369
1321
1274
1215
1151
1105
1075
1042
1023
1055
1087
1144
1199
1247
1332
1359
1370
1379
1373
1328
1279
1169
1112
1087
1074
1041
1046
1055
1142
1202
1262
1322
1363
1380
1381
1357
1331
1290
1240
1183
1127
1107
1095
1086
1106
1144
1191
1238
1321
1350
1359
1368
1382
1391
1370
1255
1189
1121
1060
1052
1055
1068
1116
1161
1222
1293
1355
1379
1407
1414
1401
1361
1297
1226
1177
1130
1085
1066
1055
1076
1123
1189
1248
1367
1392
1416
1412
1405
1378
1358
1257
1197
1135
1103
1092
1095
1117
1139
1183
1232
1307
1367
1401
1415
1409
1395
1365
1311
1267
1216
1145
1122
1113
1106
1105
1151
1205
1298
1350
1378
1403
1429
1437
1475
1332
1279
1218
1167
1134
1109
1113
1125
1160
1223
1279
1348
1387
1413
1462
1463
1439
1386
1334
1279
1169
1142
1117
1098
1094
1110
1160
1293
1348
1390
1415
1438
1450
1452
1398
1343
1295
1228
1178
1158
1141
1134
1161
1194
1232
1267
1311
1368
1441
1456
1456
1457
1408
1350
1304
1190
1156
1141
1121
1124
1141
1178
1270
1338
1396
1428
1437
1402
1386
1371
1346
1309
1245
1170
1116
1084
1084
1104
1150
1198
1259
1307
1350
1372
1387
1392
1382
1332
1266
1151
1103
1072
1043
1023
1023
1045
1126
1183
1249
1308
1346
1362
1369
1324
1269
1222
1178
1130
1094
1063
1023
1023
1023
1082
1135
1183
1293
1330
1356
1367
1354
1322
1264
1173
1127
1089
1050
1023
1023
1049
1082
1125
1191
1260
1308
1340
1360
1383
1349
1300
1252
1186
1124
1084
1049
1023
1018
1023
1085
1151
1226
1350
1372
1374
1371
1385
1351
1296
1178
1110
1063
1039
1045
1049
1068
1120
1174
1231
1279
1327
1377
1386
1376
1347
1299
1250
1193
1134
1070
1053
1056
1061
1080
1125
1183
1295
1330
1358
1387
1400
1404
1365
1248
1199
1151
1120
1092
1074
1061
1097
1130
1178
1236
1295
1338
1365
1398
1404
1383
1327
1272
1207
1100
1082
1076
1068
1078
1103
1150
1242
1301
1352
1384
1397
1397
1382
1324
1279
1229
1183
1121
1086
1068
1057
1082
1127
1181
1255
1311
1343
1363
1373
1370
1359
1327
1269
1210
1093
1066
1053
1061
1071
1108
1151
1240
1293
1352
1383
1405
1407
1352
1318
1279
1233
1170
1119
1086
1063
1065
1082
1135
1198
1253
1317
1381
1380
1376
1375
1362
1326
1279
1148
1095
1079
1074
1074
1081
1097
1199
1241
1279
1348
1391
1414
1415
1317
1324
1263
1203
1138
1108
1100
1079
1083
1102
1148
1193
1247
1328
1371
1406
1421
1423
1401
1339
1229
1168
1125
1109
1084
1062
1065
1126
1186
1256
1320
1372
1393
1397
1394
1372
1311
1265
1216
1151
1112
1078
1066
1062
1087
1132
1180
1229
1362
1398
1416
1415
1419
1393
1327
1198
1149
1114
1097
1071
1062
1103
1157
1202
1247
1309
1340
1377
1404
1402
1382
1336
1276
1219
1151
1079
1067
1063
1075
1106
1147
1185
1315
1357
1386
1401
1409
1403
1386
1274
1208
1143
1109
1090
1082
1074
1101
1175
1236
1279
1337
1375
1392
1405
1396
1372
1319
1267
1204
1102
1079
1077
1090
1092
1118
1162
1251
1311
1357
1390
1406
1407
1397
1319
1277
1212
1161
1127
1099
1077
1071
1099
1147
1196
1252
1308
1343
1384
1403
1424
1390
1342
1279
1205
1105
1087
1072
1071
1068
1092
1134
1245
1307
1362
1406
1415
1427
1389
1330
1274
1211
1138
1102
1084
1071
1069
1096
1144
1198
1270
1328
1407
1401
1402
1400
1375
1330
1279
1166
1118
1087
1075
1074
1084
1126
1234
1307
1354
1394
1414
1429
1428
1400
1333
1279
1221
1172
1138
1129
1118
1119
1148
1177
1212
1255
1363
1409
1437
1447
1430
1380
1321
1196
1151
1120
1114
1109
1095
1080
1148
1211
1267
1311
1384
1349
1364
1384
1341
1279
1228
1195
1165
1129
1084
1073
1073
1103
1156
1215
1272
1357
1370
1383
1394
1382
1353
1311
1194
1141
1101
1068
1067
1061
1092
1125
1175
1232
1292
1350
1381
1407
1387
1334
1277
1241
1180
1119
1052
1052
1047
1054
1083
1142
1218
1335
1369
1369
1370
1380
1377
1348
1263
1210
1164
1123
1095
1072
1060
1106
1183
1261
1327
1398
1461
1509
1571
1581
1572
1552
1511
1465
1390
1367
1319
1279
1268
1279
1330
1439
1462
1469
1448
1428
1412
1381
1258
1185
1122
1060
1023
1013
983
974
999
1055
1122
1236
1291
1329
1359
1373
1374
1359
1264
1212
1151
1094
1058
1054
1042
1046
1093
1139
1181
1231
1292
1342
1377
1366
1348
1321
1261
1218
1114
1067
1023
1023
1023
1060
1095
1176
1244
1317
1360
1382
1393
1374
1336
1292
1243
1182
1128
1023
1081
1047
1054
1098
1148
1207
1263
1325
1378
1404
1410
1399
1358
1307
1253
1149
1103
1082
1070
1077
1095
1136
1212
1258
1320
1372
1418
1434
1395
1348
1300
1245
1192
1138
1120
1071
1077
1074
1110
1172
1229
1279
1375
1401
1420
1423
1400
1370
1324
1210
1158
1138
1108
1092
1094
1104
1201
1249
1297
1340
1380
1398
1411
1393
1348
1300
1263
1200
1150
1122
1094
1103
1111
1141
1181
1235
1354
1397
1422
1418
1431
1423
1389
1279
1229
1174
1142
1119
1109
1095
1151
1200
1243
1308
1367
1417
1437
1430
1415
1378
1335
1293
1239
1191
1125
1113
1104
1123
1171
1216
1271
1373
1408
1446
1468
1474
1461
1423
1316
1251
1201
1163
1151
1142
1137
1179
1235
1279
1348
1396
1430
1468
1467
1436
1391
1333
1278
1233
1159
1148
1133
1127
1140
1188
1244
1351
1391
1469
1429
1423
1421
1408
1334
1271
1218
1167
1130
1100
1092
1102
1134
1173
1231
1279
1327
1353
1395
1408
1383
1339
1279
1221
1109
1076
1055
1047
1039
1063
1097
1204
1250
1293
1328
1340
1358
1355
1298
1262
1217
1162
1101
1065
1043
1023
1047
1080
1125
1179
1228
1279
1339
1346
1356
1342
1296
1242
1183
1078
1047
1023
1018
1023
1043
1088
1211
1269
1314
1341
1350
1344
1333
1307
1260
1207
1151
1096
1065
1046
1060
1086
1129
1164
1199
1241
1314
1333
1351
1364
1357
1335
1279
1159
1090
1058
1045
1023
1018
1023
1151
1217
1272
1326
1351
1359
1359
1359
1328
1270
1218
1167
1113
1068
1046
1055
1083
1124
1174
1221
1335
1368
1393
1408
1390
1364
1314
1202
1164
1122
1087
1071
1063
1067
1111
1151
1208
1277
1340
1364
1390
1407
1374
1328
1272
1230
1183
1140
1092
1079
1100
1120
1151
1186
1210
1333
1357
1366
1376
1374
1360
1335
1247
1199
1149
1113
1082
1061
1076
1132
1193
1241
1279
1326
1356
1397
1391
1363
1316
1271
1236
1178
1093
1057
1050
1059
1071
1114
1176
1279
1355
1389
1403
1404
1399
1368
1269
1212
1147
1114
1099
1077
1062
1083
1118
1167
1231
1309
1356
1375
1408
1415
1404
1348
1292
1233
1096
1080
1073
1070
1075
1101
1147
1239
1294
1342
1375
1398
1388
1383
1323
1278
1226
1183
1127
1114
1085
1069
1095
1136
1184
1239
1302
1348
1413
1409
1390
1368
1317
1266
1215
1117
1089
1063
1046
1048
1077
1134
1259
1324
1359
1386
1408
1415
1372
1325
1275
1223
1165
1115
1080
1060
1068
1102
1161
1204
1254
1310
1388
1405
1413
1406
1388
1351
1311
1166
1103
1052
1043
1053
1060
1086
1183
1248
1311
1349
1411
1382
1399
1386
1332
1272
1212
1173
1142
1110
1072
1085
1108
1151
1207
1266
1351
1375
1378
1397
1401
1380
1343
1239
1183
1142
1103
1068
1052
1055
1142
1199
1257
1314
1360
1397
1408
1416
1375
1322
1272
1217
1151
1115
1068
1055
1063
1103
1160
1213
1273
1375
1399
1393
1392
1396
1379
1326
1221
1170
1127
1083
1053
1023
1095
1143
1205
1277
1319
1354
1368
1394
1417
1401
1296
1300
1235
1167
1084
1080
1072
1087
1121
1151
1200
1325
1364
1394
1397
1394
1382
1351
1272
1228
1186
1132
1107
1109
1095
1109
1156
1212
1279
1352
1392
1412
1403
1392
1366
1325
1279
1240
1132
1100
1097
1105
1118
1158
1209
1297
1348
1387
1408
1416
1423
1412
1369
1301
1228
1157
1103
1078
1077
1090
1116
1165
1225
1279
1324
1362
1395
1423
1417
1370
1316
1262
1204
1108
1078
1049
1039
1055
1091
1148
1264
1327
1373
1388
1394
1389
1346
1299
1247
1186
1134
1095
1083
1067
1079
1099
1151
1220
1263
1304
1379
1384
1383
1380
1364
1332
1279
1178
1118
1084
1060
1050
1052
1074
1208
1279
1332
1374
1389
1398
1400
1357
1312
1269
1226
1161
1127
1109
1070
1084
1114
1167
1220
1279
1382
1412
1432
1442
1445
1428
1390
1339
1300
1279
1279
1278
1279
1299
1417
1468
1517
1549
1566
1549
1533
1505
1475
1392
1302
1228
1158
1108
1039
1010
1004
1023
1092
1162
1225
1287
1309
1341
1359
1362
1334
1278
1188
1145
1103
1075
1055
1047
1085
1140
1183
1234
1293
1332
1360
1375
1362
1324
1279
1237
1180
1127
1090
1085
1081
1066
1100
1159
1197
1306
1342
1368
1386
1391
1389
1351
1253
1202
1144
1100
1077
1062
1077
1110
1142
1174
1226
1279
1343
1391
1415
1399
1362
1315
1261
1194
1111
1077
1055
1060
1075
1122
1174
1279
1329
1367
1370
1368
1382
1397
1334
1279
1214
1146
1112
1090
1081
1071
1102
1159
1221
1279
1330
1369
1408
1422
1431
1391
1340
1290
1226
1130
1109
1087
1084
1095
1129
1174
1277
1335
1380
1417
1432
1438
1392
1335
1274
1215
1167
1140
1118
1104
1116
1160
1216
1276
1330
1350
1384
1398
1415
1420
1391
1279
1279
1189
1158
1131
1116
1102
1100
1133
1224
1294
1352
1400
1431
1449
1449
1407
1356
1290
1233
1180
1137
1114
1116
1126
1164
1202
1256
1319
1407
1420
1437
1432
1422
1389
1352
1262
1221
1166
1136
1122
1112
1117
1228
1291
1346
1389
1417
1434
1449
1460
1421
1375
1308
1246
1196
1157
1130
1128
1143
1183
1237
1279
1339
1412
1424
1436
1462
1456
1418
1372
1246
1183
1135
1105
1092
1093
1155
1211
1264
1316
1370
1404
1413
1412
1394
1350
1311
1261
1209
1156
1081
1058
1053
1063
1088
1143
1203
1311
1334
1333
1323
1327
1332
1294
1188
1135
1088
1061
1023
1013
1021
1077
1118
1168
1221
1270
1311
1333
1340
1333
1301
1258
1209
1150
1051
1023
1014
1000
1016
1060
1120
1221
1279
1332
1351
1369
1354
1337
1262
1217
1151
1087
1044
1023
1021
1054
1096
1195
1196
1247
1297
1330
1367
1364
1343
1317
1265
1202
1151
1077
1055
1023
1023
1049
1091
1151
1279
1334
1356
1371
1383
1375
1332
1279
1234
1179
1121
1087
1063
1055
1072
1117
1162
1200
1255
1303
1360
1368
1370
1367
1341
1279
1235
1123
1097
1074
1066
1055
1063
1103
1223
1274
1317
1350
1374
1399
1399
1333
1279
1231
1170
1123
1092
1069
1071
1078
1110
1149
1206
1278
1372
1385
1388
1391
1391
1350
1295
1162
1110
1087
1068
1052
1055
1064
1170
1231
1301
1349
1381
1403
1402
1367
1311
1262
1222
1173
1128
1096
1076
1081
1095
1125
1164
1221
1295
1379
1386
1380
1390
1393
1349
1296
1198
1143
1100
1061
1060
1068
1144
1179
1216
1277
1335
1377
1391
1370
1358
1326
1278
1230
1180
1130
1079
1068
1072
1091
1141
1185
1245
1348
1370
1382
1389
1383
1364
1327
1244
1187
1126
1090
1063
1052
1047
1149
1188
1234
1295
1357
1387
1399
1382
1358
1319
1266
1226
1167
1102
1095
1103
1092
1098
1130
1176
1279
1343
1380
1398
1412
1405
1384
1278
1230
1183
1149
1105
1080
1072
1098
1142
1188
1230
1276
1325
1350
1388
1393
1390
1352
1301
1223
1160
1115
1107
1094
1071
1078
1117
1175
1306
1363
1404
1409
1417
1419
1354
1295
1230
1162
1116
1093
1082
1078
1095
1136
1186
1252
1308
1353
1386
1392
1388
1374
1330
1279
1231
1132
1095
1076
1067
1070
1098
1135
1260
1304
1346
1381
1401
1402
1394
1346
1303
1247
1187
1130
1103
1092
1075
1096
1127
1174
1236
1297
1380
1391
1396
1390
1367
1311
1264
1167
1125
1111
1098
1062
1048
1077
1188
1242
1295
1348
1392
1415
1427
1394
1353
1296
1242
1189
1140
1120
1098
1090
1104
1141
1224
1236
1300
1384
1408
1421
1424
1411
1377
1320
1214
1167
1134
1114
1100
1091
1151
1209
1264
1328
1397
1420
1454
1420
1378
1320
1266
1194
1135
1103
1084
1087
1095
1116
1151
1198
1242
1369
1398
1410
1412
1397
1372
1326
1221
1158
1111
1099
1090
1091
1087
1125
1167
1206
1270
1336
1377
1390
1397
1377
1336
1279
1221
1156
1084
1063
1063
1067
1087
1140
1197
1315
1351
1373
1327
1400
1408
1377
1252
1196
1139
1111
1101
1076
1058
1071
1114
1182
1244
1298
1350
1377
1392
1386
1373
1319
1263
1213
1149
1087
1083
1076
1080
1103
1164
1230
1347
1386
1414
1438
1456
1478
1438
1398
1367
1347
1328
1335
1341
1351
1377
1419
1464
1496
1524
1532
1551
1530
1502
1446
1375
1296
1214
1066
1023
999
1004
1010
1023
1077
1134
1269
1310
1330
1362
1373
1370
1340
1238
1174
1119
1074
1050
1023
1039
1094
1133
1151
1200
1272
1332
1370
1383
1375
1343
1300
1244
1182
1131
1079
1068
1067
1071
1086
1132
1233
1293
1341
1361
1368
1375
1376
1303
1252
1196
1159
1121
1085
1054
1023
1074
1128
1199
1259
1320
1367
1402
1397
1381
1346
1294
1261
1196
1130
1110
1087
1082
1079
1103
1148
1260
1320
1363
1389
1399
1410
1413
1334
1279
1214
1151
1118
1087
1061
1063
1101
1160
1207
1258
1313
1393
1415
1434
1444
1406
1346
1279
1166
1124
1091
1074
1076
1097
1135
1228
1279
1334
1378
1412
1426
1424
1381
1339
1279
1223
1173
1139
1127
1094
1087
1125
1166
1216
1276
1338
1423
1437
1435
1420
1389
1332
1217
1173
1133
1112
1109
1099
1108
1200
1254
1316
1377
1419
1428
1439
1448
1429
1373
1302
1228
1179
1138
1120
1110
1114
1148
1199
1262
1309
1388
1427
1467
1481
1478
1438
1383
1238
1178
1136
1130
1130
1132
1143
1229
1276
1342
1394
1433
1458
1492
1472
1422
1368
1311
1262
1218
1163
1134
1119
1118
1150
1203
1279
1384
1425
1438
1446
1454
1438
1394
1289
1235
1182
1143
1113
1091
1077
1138
1192
1248
1279
1314
1350
1382
1416
1400
1347
1277
1223
1169
1120
1050
1023
1023
1054
1094
1146
1247
1302
1343
1359
1311
1372
1367
1274
1214
1156
1103
1064
1055
1023
1023
1050
1098
1166
1231
1279
1326
1350
1342
1324
1298
1255
1206
1151
1048
1046
1048
1053
1054
1087
1122
1213
1261
1298
1321
1343
1349
1342
1270
1222
1172
1103
1067
1055
1051
1053
1071
1108
1158
1227
1306
1382
1406
1388
1362
1328
1262
1202
1093
1085
1087
1079
1060
1054
1082
1172
1238
1309
1340
1363
1386
1387
1335
1279
1236
1180
1127
1073
1058
1048
1055
1100
1166
1210
1262
1316
1370
1383
1391
1383
1335
1279
1158
1108
1084
1058
1042
1051
1063
1158
1214
1274
1330
1368
1384
1396
1406
1378
1324
1269
1201
1148
1125
1068
1068
1071
1106
1165
1228
1279
1375
1387
1387
1382
1368
1330
1290
1207
1154
1118
1097
1078
1070
1076
1149
1207
1262
1322
1356
1381
1378
1371
1325
1279
1244
1190
1134
1068
1104
1064
1075
1113
1162
1217
1332
1364
1384
1376
1370
1358
1327
1236
1181
1127
1100
1085
1076
1086
1151
1196
1240
1293
1321
1342
1368
1382
1367
1343
1315
1268
1215
1144
1082
1071
1063
1071
1133
1182
1310
1356
1374
1391
1405
1402
1380
1301
1250
1192
1145
1108
1080
1071
1072
1124
1183
1242
1306
1356
1378
1391
1394
1394
1361
1309
1254
1193
1098
1074
1060
1051
1051
1094
1156
1279
1343
1378
1402
1414
1407
1372
1293
1239
1186
1148
1100
1063
1023
1062
1119
1188
1246
1304
1336
1404
1411
1413
1384
1342
1295
1243
1132
1109
1096
1084
1079
1098
1138
1245
1300
1350
1384
1391
1386
1382
1340
1300
1253
1194
1140
1115
1101
1080
1098
1132
1173
1227
1270
1306
1395
1419
1434
1413
1351
1279
1169
1128
1095
1079
1061
1068
1091
1190
1256
1333
1390
1418
1423
1422
1391
1350
1306
1247
1183
1120
1077
1055
1060
1087
1133
1188
1234
1292
1380
1397
1394
1392
1368
1329
1270
1181
1140
1120
1110
1091
1067
1066
1191
1254
1319
1359
1386
1401
1421
1401
1348
1276
1210
1151
1114
1087
1084
1079
1101
1149
1197
1256
1376
1406
1429
1445
1428
1394
1348
1256
1206
1162
1124
1100
1093
1101
1157
1212
1269
1332
1383
1402
1422
1425
1396
1354
1311
1254
1188
1127
1084
1080
1078
1100
1151
1213
1318
1374
1404
1415
1418
1397
1370
1268
1219
1162
1132
1102
1083
1080
1073
1102
1149
1208
1260
1310
1353
1412
1415
1391
1331
1274
1224
1166
1103
1076
1068
1074
1099
1137
1183
1289
1332
1357
1371
1376
1371
1359
1295
1245
1164
1098
1066
1052
1063
1093
1138
1189
1239
1293
1338
1401
1408
1413
1391
1340
1279
1224
1119
1106
1100
1094
1097
1119
1167
1290
1366
1420
1467
1503
1517
1536
1521
1494
1465
1423
1395
1380
1367
1330
1316
1318
1348
1391
1467
1500
1493
1470
1431
1377
1311
1239
1117
1073
1042
1023
1023
1023
1046
1142
1194
1250
1307
1339
1361
1359
1325
1279
1225
1170
1118
1073
1040
1070
1084
1114
1151
1183
1226
1279
1338
1360
1367
1373
1346
1304
1257
1146
1103
1060
1023
1023
1043
1072
1180
1237
1279
1331
1365
1386
1385
1351
1308
1269
1205
1146
1098
1051
1055
1065
1095
1144
1197
1259
1352
1380
1382
1397
1397
1364
1318
1209
1151
1119
1103
1106
1108
1103
1144
1178
1232
1294
1351
1387
1398
1397
1375
1330
1279
1231
1172
1129
1107
1102
1106
1144
1184
1235
1322
1352
1386
1403
1399
1417
1391
1279
1223
1167
1123
1106
1103
1093
1129
1165
1218
1279
1353
1398
1417
1414
1420
1391
1347
1279
1220
1158
1090
1085
1080
1080
1105
1158
1227
1377
1415
1430
1437
1451
1442
1406
1287
1241
1197
1147
1118
1106
1112
1145
1183
1225
1279
1348
1405
1445
1463
1452
1423
1377
1305
1250
1178
1148
1124
1103
1110
1151
1207
1322
1361
1399
1422
1455
1477
1467
1377
1335
1274
1211
1172
1151
1142
1133
1166
1223
1279
1326
1383
1439
1474
1470
1464
1430
1375
1311
1188
1143
1129
1118
1122
1150
1174
1279
1337
1386
1428
1451
1462
1457
1387
1332
1279
1243
1186
1151
1143
1109
1108
1127
1168
1220
1276
1328
1385
1396
1404
1383
1353
1298
1238
1130
1095
1068
1023
1020
1023
1074
1178
1237
1298
1324
1332
1341
1341
1319
1269
1223
1177
1113
1066
1023
1023
1023
1065
1098
1146
1203
1306
1348
1374
1361
1351
1317
1263
1141
1084
1052
1023
1022
1016
1022
1117
1166
1220
1279
1301
1327
1354
1354
1322
1279
1244
1202
1151
1109
1053
1023
1023
1069
1127
1173
1279
1320
1342
1368
1379
1366
1331
1225
1174
1127
1098
1072
1055
1055
1094
1151
1199
1248
1296
1346
1364
1389
1389
1364
1315
1257
1186
1139
1073
1055
1041
1023
1054
1111
1176
1311
1353
1379
1396
1405
1403
1366
1246
1170
1121
1087
1066
1046
1061
1104
1170
1210
1211
1326
1365
1386
1385
1370
1328
1279
1235
1185
1108
1087
1063
1055
1055
1110
1168
1295
1344
1379
1390
1383
1400
1402
1302
1244
1183
1126
1098
1080
1075
1069
1107
1154
1221
1294
1342
1375
1405
1400
1396
1372
1311
1246
1131
1111
1095
1087
1080
1091
1127
1237
1309
1361
1374
1368
1349
1338
1311
1279
1244
1197
1158
1130
1113
1075
1086
1117
1170
1212
1274
1318
1375
1391
1397
1388
1343
1293
1240
1142
1095
1077
1070
1076
1084
1125
1218
1279
1337
1369
1398
1415
1394
1349
1298
1229
1165
1117
1095
1070
1066
1074
1114
1167
1227
1292
1373
1386
1395
1394
1378
1355
1315
1186
1140
1102
1080
1071
1071
1087
1151
1217
1279
1347
1383
1390
1397
1395
1358
1317
1264
1202
1151
1118
1089
1075
1087
1122
1177
1239
1358
1381
1395
1392
1381
1371
1338
1239
1231
1136
1111
1107
1104
1109
1156
1203
1246
1295
1334
1368
1380
1384
1359
1323
1277
1229
1183
1130
1086
1066
1063
1087
1122
1164
1225
1338
1375
1389
1387
1374
1365
1352
1277
1223
1150
1110
1087
1077
1087
1128
1188
1261
1324
1371
1392
1407
1394
1379
1343
1294
1239
1181
1106
1098
1086
1077
1097
1142
1201
1311
1357
1378
1395
1402
1388
1368
1295
1242
1185
1142
1122
1111
1111
1134
1174
1228
1278
1333
1378
1398
1439
1433
1395
1333
1279
1239
1148
1119
1093
1101
1109
1122
1151
1250
1306
1365
1389
1398
1409
1405
1334
1269
1227
1183
1151
1135
1118
1079
1072
1113
1175
1231
1279
1336
1374
1387
1386
1375
1332
1279
1229
1116
1090
1063
1062
1065
1078
1118
1224
1274
1323
1357
1387
1396
1369
1320
1273
1223
1156
1118
1101
1072
1082
1108
1151
1208
1254
1249
1359
1381
1392
1391
1374
1316
1274
1179
1118
1102
1084
1080
1081
1100
1173
1223
1295
1350
1384
1406
1410
1411
1369
1314
1264
1209
1166
1146
1137
1157
1213
1300
1378
1467
1591
1628
1663
1683
1674
1640
1564
1395
1325
1263
1216
1175
1139
1114
1147
1168
1199
1246
1279
1298
1320
1342
1322
1263
1205
1144
1103
1076
1047
1046
1023
1066
1122
1174
1226
1338
1366
1379
1388
1386
1360
1309
1194
1145
1107
1072
1054
1055
1062
1110
1165
1220
1278
1327
1367
1391
1393
1368
1326
1279
1222
1163
1087
1056
1044
1023
1063
1122
1180
1300
1349
1376
1394
1411
1410
1380
1279
1209
1140
1098
1069
1059
1068
1112
1159
1205
1256
1310
1359
1394
1418
1419
1385
1326
1270
1206
1099
1071
1071
1076
1079
1113
1158
1255
1314
1368
1412
1428
1430
1434
1351
1295
1228
1131
1150
1117
1087
1071
1107
1154
1198
1255
1317
1362
1404
1407
1398
1351
1291
1244
1219
1170
1143
1119
1101
1098
1135
1191
1314
1362
1398
1431
1449
1451
1405
1352
1298
1235
1179
1136
1119
1103
1086
1112
1156
1220
1279
1353
1416
1431
1439
1442
1407
1351
1294
1210
1167
1136
1116
1103
1109
1143
1239
1292
1351
1401
1450
1487
1494
1416
1373
1326
1252
1204
1159
1143
1128
1131
1159
1207
1261
1322
1430
1446
1454
1471
1469
1430
1382
1266
1222
1188
1162
1142
1139
1150
1216
1264
1317
1380
1432
1457
1467
1468
1428
1367
1309
1243
1204
1173
1144
1123
1110
1137
1183
1251
1309
1380
1389
1404
1409
1412
1385
1334
1204
1151
1131
1120
1102
1087
1099
1140
1198
1254
1310
1343
1359
1360
1343
1309
1264
1221
1173
1120
1055
1023
1010
1020
1050
1105
1163
1279
1303
1325
1330
1330
1335
1309
1204
1163
1110
1068
1050
1018
1001
1023
1095
1151
1214
1270
1310
1341
1360
1354
1330
1279
1220
1168
1066
1023
1023
1023
1023
1075
1131
1251
1289
1328
1356
1381
1373
1360
1270
1220
1176
1127
1090
1069
1055
1050
1075
1112
1158
1210
1273
1306
1350
1372
1384
1348
1279
1219
1151
1086
1072
1063
1062
1063
1092
1150
1258
1316
1343
1356
1370
1385
1344
1295
1235
1174
1122
1080
1061
1049
1054
1092
1158
1218
1270
1310
1354
1369
1383
1380
1346
1311
1263
1142
1107
1074
1054
1060
1074
1121
1229
1278
1317
1343
1354
1362
1367
1356
1330
1292
1218
1142
1098
1071
1060
1071
1119
1174
1235
1279
1365
1389
1398
1392
1380
1327
1278
1220
1171
1132
1101
1077
1061
1063
1154
1213
1279
1328
1366
1388
1394
1388
1346
1296
1244
1183
1137
1094
1058
1056
1064
1100
1146
1205
1279
1362
1382
1390
1394
1381
1353
1311
1197
1135
1098
1086
1074
1072
1118
1158
1216
1279
1340
1378
1392
1377
1374
1348
1310
1264
1205
1151
1086
1075
1064
1074
1118
1156
1206
1317
1353
1372
1391
1405
1408
1370
1250
1190
1151
1112
1078
1054
1023
1122
1188
1241
1279
1333
1358
1370
1400
1399
1376
1334
1255
1174
1086
1076
1070
1076
1023
1133
1188
1291
1347
1383
1394
1398
1413
1386
1306
1246
1183
1134
1109
1087
1072
1073
1114
1170
1224
1277
1332
1383
1402
1416
1401
1371
1333
1273
1197
1109
1092
1083
1076
1071
1090
1142
1278
1334
1374
1385
1388
1392
1331
1279
1247
1188
1139
1117
1121
1103
1108
1116
1151
1210
1272
1331
1381
1389
1388
1383
1356
1312
1252
1109
1070
1075
1068
1076
1096
1135
1228
1279
1329
1364
1399
1416
1414
1349
1279
1228
1183
1128
1100
1098
1098
1110
1145
1191
1241
1303
1386
1404
1416
1412
1386
1343
1279
1164
1123
1098
1087
1082
1082
1100
1190
1234
1279
1356
1386
1398
1407
1394
1352
1299
1240
1193
1157
1135
1125
1112
1114
1144
1189
1229
1279
1385
1410
1434
1429
1394
1334
1291
1207
1159
1124
1102
1086
1090
1158
1224
1269
1314
1362
1391
1407
1417
1442
1350
1298
1241
1186
1145
1106
1090
1085
1079
1114
1166
1219
1336
1375
1381
1388
1381
1356
1314
1223
1175
1128
1111
1082
1068
1068
1102
1146
1209
1275
1332
1373
1398
1393
1373
1330
1279
1241
1173
1084
1069
1062
1066
1095
1142
1204
1317
1354
1372
1388
1388
1387
1391
1270
1222
1170
1122
1087
1071
1064
1077
1112
1160
1218
1279
1330
1368
1400
1398
1385
1355
1307
1255
1199
1129
1103
1087
1104
1144
1212
1271
1441
1508
1554
1591
1629
1659
1636
1576
1504
1420
1340
1279
1252
1217
1223
1249
1257
1278
1304
1327
1356
1357
1346
1319
1279
1231
1174
1060
1023
1023
1043
1023
1042
1100
1212
1278
1337
1366
1369
1367
1365
1311
1257
1189
1132
1101
1070
1054
1065
1082
1132
1183
1227
1268
1346
1378
1389
1388
1348
1299
1253
1150
1101
1073
1046
1045
1053
1076
1181
1248
1310
1347
1365
1366
1378
1329
1278
1242
1202
1151
1118
1082
1065
1079
1094
1128
1173
1245
1309
1388
1394
1394
1393
1369
1311
1260
1165
1125
1093
1077
1072
1072
1136
1183
1249
1308
1366
1404
1417
1413
1388
1328
1272
1221
1170
1136
1086
1068
1071
1099
1128
1182
1266
1396
1410
1413
1412
1416
1396
1353
1250
1196
1141
1115
1103
1084
1080
1162
1218
1279
1349
1330
1408
1421
1418
1399
1359
1316
1256
1205
1108
1096
1094
1095
1126
1173
1222
1335
1389
1424
1428
1420
1402
1382
1294
1242
1206
1167
1130
1119
1111
1143
1207
1262
1314
1369
1412
1420
1437
1430
1410
1362
1309
1248
1191
1132
1126
1127
1127
1140
1190
1255
1377
1423
1432
1443
1453
1453
1376
1325
1278
1230
1191
1163
1136
1148
1175
1219
1263
1302
1354
1400
1451
1466
1468
1380
1388
1335
1275
1177
1151
1113
1114
1125
1151
1206
1317
1363
1397
1413
1422
1422
1423
1354
1297
1237
1164
1127
1109
1079
1069
1099
1138
1189
1257
1327
1383
1387
1378
1374
1349
1293
1247
1129
1076
1052
1023
1046
1050
1080
1169
1221
1267
1298
1324
1348
1350
1324
1260
1208
1158
1105
1060
1023
1002
1006
1023
1095
1154
1214
1273
1340
1359
1356
1350
1319
1273
1216
1098
1066
1052
1039
1042
1048
1125
1158
1214
1275
1312
1326
1338
1355
1331
1279
1224
1160
1095
1055
1023
1048
1057
1087
1134
1178
1240
1341
1355
1371
1373
1364
1320
1261
1158
1116
1096
1073
1068
1069
1054
1140
1203
1254
1305
1325
1342
1367
1377
1328
1277
1248
1207
1165
1076
1052
1048
1059
1086
1133
1181
1324
1365
1383
1386
1394
1398
1356
1251
1176
1122
1101
1092
1070
1063
1102
1156
1205
1265
1320
1364
1394
1401
1405
1362
1306
1244
1176
1110
1068
1055
1052
1047
1083
1130
1188
1328
1386
1413
1397
1386
1380
1298
1261
1199
1141
1101
1079
1069
1066
1092
1124
1187
1275
1335
1378
1411
1402
1391
1343
1298
1252
1191
1082
1058
1051
1044
1067
1114
1163
1270
1317
1343
1367
1377
1396
1390
1319
1272
1218
1175
1133
1109
1101
1074
1111
1158
1218
1279
1343
1380
1380
1386
1386
1362
1326
1252
1137
1101
1078
1076
1073
1094
1130
1212
1257
1295
1329
1347
1365
1378
1348
1317
1268
1212
1170
1132
1093
1044
1066
1121
1175
1237
1296
1356
1381
1391
1397
1385
1339
1294
1240
1125
1087
1074
1079
1079
1079
1158
1222
1271
1325
1373
1394
1402
1393
1350
1299
1241
1188
1149
1123
1075
1063
1079
1105
1176
1247
1308
1382
1401
1403
1403
1381
1338
1295
1203
1144
1112
1098
1082
1081
1108
1178
1216
1272
1323
1370
1391
1408
1407
1363
1302
1241
1195
1136
1071
1055
1058
1084
1134
1182
1241
1337
1372
1381
1387
1387
1383
1360
1250
1197
1145
1110
1092
1076
1059
1108
1163
1216
1279
1338
1370
1391
1408
1400
1359
1299
1226
1168
1127
1092
1071
1060
1068
1111
1173
1218
1338
1372
1403
1421
1417
1392
1301
1238
1179
1127
1023
1082
1077
1091
1131
1180
1223
1279
1337
1377
1408
1409
1394
1362
1305
1246
1190
1127
1106
1087
1086
1095
1150
1207
1314
1374
1407
1412
1403
1369
1336
1271
1235
1182
1131
1095
1069
1067
1094
1142
1198
1262
1314
1359
1396
1412
1407
1391
1338
1279
1223
1119
1101
1094
1072
1058
1062
1107
1224
1290
1351
1397
1423
1432
1419
1341
1293
1239
1179
1122
1103
1094
1086
1097
1141
1204
1255
1315
1354
1414
1410
1407
1388
1341
1294
1256
1159
1140
1124
1103
1093
1095
1195
1273
1338
1377
1400
1417
1417
1400
1356
1306
1261
1208
1166
1149
1103
1080
1091
1131
1177
1245
1310
1382
1406
1410
1402
1378
1325
1279
1167
1121
1090
1079
1063
1052
1071
1171
1222
1292
1340
1366
1391
1404
1382
1331
1275
