255
255
255
255
249
246
251
250
240
250
239
241
236
244
238
239
231
250
241
243
253
244
240
240
255
242
236
240
231
239
236
234
236
229
231
227
227
222
233
225
238
239
228
220
220
220
218
213
218
214
214
207
199
203
205
202
207
201
204
214
206
192
198
204
197
195
194
194
196
206
191
185
189
180
193
177
183
197
188
188
194
186
185
183
186
179
191
179
182
182
176
181
183
153
191
188
182
173
178
162
189
174
174
174
171
191
180
173
174
174
153
153
191
175
167
157
135
166
159
159
166
165
169
171
178
173
178
174
165
178
178
170
164
167
167
182
168
159
156
159
154
151
162
157
159
154
149
156
158
150
141
152
151
148
178
158
158
159
155
146
146
145
114
152
144
150
155
118
140
148
143
149
150
140
154
153
143
147
147
145
126
154
145
156
158
151
148
154
150
127
150
148
140
137
131
127
133
123
125
121
121
119
127
126
124
132
133
127
132
132
142
137
127
127
133
135
135
125
122
127
122
116
116
124
103
121
118
116
114
111
103
103
100
96
111
97
97
98
102
90
84
84
79
86
88
92
92
93
98
97
97
79
102
91
86
86
90
65
84
84
90
86
69
69
84
82
77
71
71
63
75
79
79
83
82
69
69
91
90
96
96
94
102
90
73
73
86
84
85
86
86
88
90
90
90
87
123
99
106
117
133
133
127
138
142
136
150
154
157
162
159
180
183
175
175
184
187
197
193
207
221
222
225
225
238
246
231
255
268
286
287
307
308
313
326
333
342
339
359
359
356
380
383
397
406
406
412
430
441
439
460
449
476
495
497
510
505
530
529
540
551
551
566
580
590
599
607
607
614
624
631
647
652
662
683
698
685
700
711
711
710
724
726
737
743
751
763
772
774
774
777
785
805
799
805
820
826
827
836
838
847
863
855
861
866
855
876
880
886
891
888
888
885
892
886
891
888
888
886
893
887
886
882
899
896
907
908
917
916
916
914
910
912
898
898
889
874
872
882
877
880
884
884
881
892
895
894
892
900
898
894
906
901
902
894
887
887
888
883
887
871
880
877
881
870
865
870
882
870
875
866
871
865
855
865
858
856
870
870
852
858
861
852
848
854
854
854
856
853
860
858
855
860
852
857
860
855
842
851
839
839
828
828
828
819
814
820
820
817
814
818
818
815
819
804
806
811
807
798
798
807
793
793
790
783
796
797
787
795
792
799
797
784
780
783
778
765
772
766
755
754
751
746
745
745
731
741
741
735
743
733
732
735
730
692
722
716
713
713
687
706
702
695
692
696
698
692
692
689
688
692
692
685
694
694
669
686
677
671
667
659
662
658
658
654
645
647
647
644
644
639
650
653
649
647
648
638
637
631
630
632
631
637
629
628
632
622
617
620
626
623
623
602
622
618
621
615
614
616
618
615
613
615
619
614
609
610
607
607
599
604
604
601
601
599
601
603
608
615
609
612
614
608
608
607
607
605
607
607
612
607
607
609
604
604
604
607
601
599
603
594
589
591
590
589
586
586
588
591
591
591
593
580
582
573
580
589
589
584
580
579
575
575
582
580
588
583
587
588
580
583
582
577
579
590
572
589
582
580
580
575
572
582
574
572
567
572
562
562
564
553
555
563
550
545
554
554
540
551
551
543
546
546
543
542
539
538
542
511
533
532
511
505
511
511
505
502
502
487
494
487
492
496
511
511
504
496
498
509
492
489
494
487
487
463
478
478
474
471
471
477
482
477
473
476
473
473
462
457
466
460
447
442
414
434
431
423
423
424
430
437
432
430
435
430
429
428
423
423
424
428
422
415
415
403
404
400
402
407
393
399
399
396
381
388
382
383
370
380
382
382
376
370
368
368
369
365
357
358
378
356
348
350
348
353
346
342
343
345
339
338
329
329
326
333
325
319
323
304
312
316
311
309
307
310
310
303
303
306
301
306
298
292
287
299
299
287
276
279
279
277
282
271
278
277
243
278
272
276
270
255
255
287
255
253
255
231
231
253
254
252
254
255
243
250
249
236
250
245
250
255
250
237
247
247
241
246
236
250
250
239
231
227
232
227
239
229
234
244
230
228
231
223
229
223
244
226
224
215
218
213
213
211
221
209
214
221
212
205
210
206
205
203
204
210
207
199
198
208
198
194
185
187
187
198
191
184
190
186
185
187
184
190
191
187
186
184
183
182
176
178
179
172
172
176
176
169
173
167
166
174
171
167
170
169
172
170
165
166
170
158
157
162
150
164
158
158
158
154
150
163
162
160
159
158
157
155
166
146
152
158
150
149
144
138
127
139
127
131
129
129
135
139
137
146
155
154
141
150
146
137
158
143
146
143
135
131
157
146
143
144
146
146
152
142
137
142
142
141
140
140
135
135
127
123
125
127
137
125
127
138
118
121
127
127
125
127
106
127
126
127
103
122
125
122
127
120
118
125
118
113
118
119
117
115
116
116
134
123
115
118
109
114
117
101
103
111
98
97
106
106
95
97
84
118
95
95
101
95
102
105
102
94
96
96
93
98
68
68
85
92
87
87
84
92
92
92
86
79
83
86
86
101
92
93
73
73
78
79
78
78
72
75
70
70
63
76
76
76
70
73
67
70
70
69
78
77
77
64
67
74
74
44
61
59
59
62
57
62
42
42
58
51
43
43
48
53
58
58
57
48
50
50
59
62
48
48
50
54
57
55
55
52
50
47
47
39
55
37
37
44
39
33
33
39
51
46
45
45
47
59
61
61
62
54
63
63
63
59
62
62
63
62
79
64
64
67
79
68
68
73
86
86
86
93
100
106
110
117
115
124
137
135
151
148
148
154
169
166
165
178
194
197
204
210
222
246
235
247
255
255
255
304
287
308
310
312
312
327
338
345
354
362
383
388
391
407
413
428
445
452
463
489
483
488
508
511
511
526
526
540
554
559
566
580
586
601
619
625
634
654
662
665
676
686
689
699
711
714
723
734
734
737
744
755
770
773
778
799
799
805
818
823
830
830
843
846
853
855
856
864
875
876
876
876
884
895
898
892
906
911
895
912
921
919
911
927
926
926
934
934
931
935
937
935
936
936
942
946
941
949
950
950
940
951
951
954
959
950
949
955
957
930
944
946
946
948
942
942
950
945
950
951
943
946
947
946
935
949
961
940
936
938
936
933
936
933
934
932
927
927
925
928
935
927
919
930
933
922
920
924
920
920
918
911
916
911
903
911
907
905
919
919
905
914
917
907
905
908
908
908
909
902
903
904
895
901
898
893
903
887
893
907
897
897
889
888
891
892
899
889
894
892
887
890
883
883
887
875
874
886
879
870
882
872
876
868
868
876
868
866
879
859
860
860
854
853
842
856
846
838
839
839
841
839
831
838
836
823
823
823
824
823
820
821
817
817
806
789
798
795
795
790
792
798
790
789
772
784
783
783
783
775
775
773
766
760
762
758
755
754
746
751
743
743
746
744
742
743
729
726
737
726
726
719
719
722
712
712
714
715
711
699
711
706
707
715
685
704
715
706
696
706
703
699
699
676
687
695
686
678
692
680
678
683
671
666
685
676
665
674
671
669
671
668
663
667
667
655
666
657
654
656
653
651
668
662
648
658
652
655
647
652
647
653
639
649
648
652
652
639
645
639
650
639
628
630
644
636
639
638
638
639
635
635
635
639
655
636
638
635
630
630
621
630
626
621
622
606
621
623
615
615
617
623
629
620
625
629
618
609
612
614
609
609
607
610
602
603
599
592
600
602
607
601
598
602
596
592
592
586
585
581
574
583
572
572
563
564
560
564
559
560
559
560
550
536
543
543
547
540
538
535
533
539
534
511
511
511
511
511
511
511
511
501
507
511
505
503
506
508
503
495
498
491
487
490
480
479
493
493
478
468
474
474
481
467
468
466
467
467
463
459
452
458
449
452
455
439
437
444
439
439
437
434
426
442
438
435
437
433
426
426
421
423
435
415
409
414
420
412
410
406
403
402
402
395
398
389
386
386
376
386
373
370
365
372
362
359
364
364
358
364
359
357
361
340
340
362
349
351
366
346
340
350
351
341
338
330
315
319
311
317
317
314
333
309
314
318
318
314
296
318
318
319
314
316
311
308
299
304
296
306
303
297
298
299
294
285
292
294
294
287
294
287
287
285
279
278
280
281
281
273
270
273
270
236
255
255
255
255
278
255
255
255
255
255
253
254
255
253
250
251
247
236
238
239
255
235
232
246
239
255
236
237
237
233
245
233
199
235
228
212
203
208
205
207
206
207
181
215
204
197
207
206
200
211
211
217
212
201
202
212
191
194
191
199
205
194
188
185
183
159
169
179
187
179
173
164
198
198
175
182
182
182
191
179
182
177
186
182
184
175
183
170
153
188
180
165
172
166
166
166
161
151
157
156
159
173
161
164
171
166
161
159
159
159
164
159
166
165
147
166
153
153
154
146
137
135
143
134
136
124
139
140
142
143
126
149
146
146
149
147
167
149
150
150
147
140
136
158
134
140
140
154
131
139
131
138
137
138
157
136
134
143
127
120
134
134
127
121
119
118
127
143
119
122
121
127
123
113
135
136
122
116
119
115
121
118
104
104
105
101
95
102
101
98
95
97
97
95
79
95
95
96
106
103
105
114
108
103
105
91
91
103
97
92
94
94
89
94
102
94
94
77
91
81
81
79
86
80
80
92
79
71
76
76
73
68
93
93
73
82
90
90
76
81
80
80
82
85
90
84
84
86
83
75
75
84
89
84
84
79
69
74
74
70
76
61
68
68
62
63
63
63
54
82
63
63
59
63
61
61
63
69
41
60
60
63
55
48
48
46
46
49
49
50
44
50
50
35
47
50
50
41
52
39
56
56
53
51
48
48
37
23
59
59
44
38
31
31
38
43
35
44
44
41
46
61
61
48
50
55
55
54
60
54
54
51
56
62
60
60
63
63
59
59
63
73
70
70
95
80
91
91
107
102
108
121
126
127
134
140
146
153
151
134
181
178
189
185
185
196
219
210
217
237
240
249
255
270
282
290
287
302
312
314
335
337
346
367
372
377
377
391
399
413
430
436
447
459
459
477
493
495
511
509
511
541
540
543
562
567
575
586
599
599
614
620
623
639
650
654
671
675
679
701
700
700
716
722
724
732
744
752
762
771
777
777
784
783
783
800
803
824
818
808
830
831
829
834
844
842
855
855
862
860
871
862
881
881
876
884
880
873
878
879
877
876
886
877
878
879
877
874
883
884
881
894
897
892
892
892
898
906
901
898
897
890
885
879
883
880
884
876
869
878
881
870
868
878
875
881
883
883
879
882
884
886
875
874
878
874
868
871
872
858
850
848
847
867
857
847
855
853
846
846
849
842
842
853
848
839
861
852
844
846
846
843
840
844
836
838
831
831
832
836
834
834
829
826
842
828
824
830
828
825
826
812
824
821
822
815
808
822
815
809
818
819
814
810
810
822
813
812
812
815
806
806
798
791
788
790
788
789
788
789
782
780
774
782
781
785
785
778
777
770
775
766
766
766
760
755
761
763
754
749
750
749
749
746
730
732
729
719
719
719
712
711
698
699
703
707
702
697
703
698
703
705
698
706
700
695
695
690
687
699
699
684
682
677
660
656
658
659
653
662
646
658
653
647
655
656
654
655
661
650
661
650
650
639
644
639
637
631
628
631
632
623
625
619
621
628
613
618
631
623
616
628
622
621
621
614
612
618
607
599
609
603
607
607
597
605
617
607
601
612
612
607
612
622
602
607
603
603
591
605
597
605
593
594
605
596
584
594
606
587
586
588
586
591
587
589
585
594
590
590
588
587
606
596
592
598
599
593
594
583
582
575
566
567
563
567
570
561
567
570
582
582
561
574
564
561
562
559
562
563
551
551
552
554
561
549
554
547
548
541
543
550
543
543
542
541
532
535
535
511
528
532
527
511
511
527
511
508
511
511
511
511
511
511
511
511
501
507
504
501
493
489
494
486
482
476
476
474
481
471
468
479
475
471
471
465
474
474
470
469
468
472
462
440
455
450
447
438
431
431
427
423
426
425
421
422
417
422
434
434
422
413
415
398
409
406
399
407
399
391
391
392
391
392
392
389
404
394
388
390
383
380
380
376
367
372
373
363
364
360
355
351
356
356
367
370
356
366
356
357
358
360
359
353
353
343
338
336
334
335
328
319
329
319
308
294
314
319
316
312
324
319
319
338
313
317
317
317
313
311
315
302
296
298
287
281
279
278
286
283
275
279
273
274
282
273
278
286
286
276
253
255
251
255
252
254
254
249
247
254
253
254
255
255
255
274
252
248
252
252
252
233
238
238
228
239
231
234
208
238
234
233
236
253
243
237
238
244
245
242
234
228
228
223
219
220
193
213
214
208
207
222
210
205
218
220
213
220
220
218
219
207
212
200
202
202
202
192
196
183
196
188
198
198
199
206
202
194
195
183
186
185
193
189
181
182
185
185
171
169
178
180
175
186
186
187
199
183
190
184
199
185
169
144
179
174
165
186
163
163
169
162
168
159
175
171
172
173
159
185
177
183
191
182
173
178
175
169
159
159
166
166
150
151
154
155
156
159
153
158
165
156
172
159
159
161
159
159
164
163
159
159
152
152
151
159
144
148
158
151
148
147
147
149
146
142
158
151
151
151
152
148
142
144
143
143
157
150
141
148
152
148
142
150
150
155
143
148
137
146
142
133
138
143
142
127
140
140
143
127
138
110
142
141
139
142
133
138
134
129
127
139
122
120
134
122
125
118
122
124
124
111
123
126
121
146
126
121
106
127
118
109
118
114
111
95
110
114
114
95
115
110
113
118
114
104
114
115
110
104
114
103
105
102
100
100
99
103
91
98
97
97
102
102
96
100
111
100
96
78
78
100
93
95
90
90
86
89
83
83
87
80
71
71
87
77
87
87
91
82
77
91
91
78
77
84
84
76
82
87
87
67
70
69
69
71
69
61
46
46
71
68
56
56
74
62
63
63
78
62
70
70
69
55
63
63
61
63
65
48
48
63
63
60
60
56
58
55
55
63
60
60
60
62
85
63
63
63
72
71
77
77
65
84
83
83
70
76
79
79
67
79
92
104
104
100
109
115
112
117
126
133
133
142
155
151
136
159
166
165
170
180
183
197
199
214
214
219
230
245
241
255
275
274
269
283
294
255
302
306
295
326
338
349
353
372
370
388
388
406
427
428
429
444
454
463
474
484
486
493
511
510
511
530
532
537
561
568
573
580
580
598
614
620
626
637
646
653
663
667
670
681
671
688
702
713
708
719
735
743
743
752
764
764
759
780
774
783
778
791
788
789
799
811
806
808
818
819
825
831
836
827
844
837
836
836
835
841
822
833
842
847
838
834
839
854
847
856
853
859
862
855
857
858
861
865
855
855
853
867
860
848
855
851
852
854
844
847
845
843
843
843
844
855
847
847
855
838
836
836
841
835
829
830
818
823
813
807
807
800
809
815
807
802
826
812
809
820
816
813
810
810
807
812
811
799
806
801
799
807
801
795
809
807
797
806
804
799
799
799
798
796
795
795
792
796
786
790
771
782
797
783
777
782
787
781
778
781
778
778
775
773
773
775
770
765
765
762
754
762
752
756
759
752
746
751
746
735
751
741
738
742
735
727
732
733
714
717
717
718
718
709
704
703
698
703
699
695
692
697
678
683
686
691
678
672
671
668
669
666
666
655
658
655
639
652
645
649
648
641
650
649
639
632
636
634
619
631
620
626
622
615
615
607
611
615
618
609
620
617
612
605
594
606
605
607
600
604
597
591
596
592
591
596
596
581
591
595
581
584
606
587
587
590
583
588
590
583
585
584
577
591
588
573
585
580
580
571
580
575
581
586
575
583
585
579
586
581
579
583
576
575
568
575
569
574
574
573
570
570
572
575
575
583
575
574
571
579
564
566
575
568
557
566
564
557
559
559
562
559
551
551
559
561
564
558
556
548
562
550
548
549
543
549
543
541
546
541
534
540
539
532
543
543
533
535
537
527
511
511
511
511
509
511
511
511
511
509
499
500
511
496
502
509
502
502
493
494
494
493
491
490
490
487
479
480
475
474
479
464
460
481
468
436
466
468
457
457
462
460
462
461
447
456
450
447
453
437
438
447
438
429
438
434
429
432
431
423
426
426
415
423
416
413
405
409
407
415
402
396
400
372
392
394
394
390
390
379
387
384
390
390
381
369
384
383
375
365
372
367
361
362
364
358
357
355
324
353
354
349
347
354
351
342
342
333
342
340
307
334
330
324
323
315
322
313
316
321
313
316
319
310
308
306
306
308
308
306
306
295
295
295
287
289
282
293
280
276
287
279
255
274
275
273
275
270
270
271
271
255
255
253
255
255
249
250
253
244
248
244
244
255
246
244
244
245
243
244
235
231
231
239
229
231
234
228
217
223
227
229
222
220
224
225
219
218
216
218
218
209
182
219
219
206
201
212
206
209
199
198
206
203
199
204
205
199
202
197
202
207
198
189
198
191
191
185
186
184
190
187
183
186
185
189
202
185
186
196
183
180
182
154
175
180
170
178
166
166
167
170
168
166
170
161
167
180
170
161
174
166
165
166
166
173
165
155
158
159
164
164
159
157
159
173
159
157
166
166
159
167
159
159
159
131
148
145
143
143
136
140
127
127
135
132
142
138
143
148
148
140
143
119
131
136
132
143
125
127
139
134
127
110
134
134
137
143
140
146
141
139
146
147
145
143
137
135
107
134
121
126
123
113
118
118
127
127
127
123
135
133
110
141
125
127
131
124
113
119
114
111
110
114
112
111
115
119
113
113
121
133
113
127
137
126
125
126
123
117
110
106
119
107
95
103
97
97
102
94
105
98
98
109
110
104
110
110
109
114
132
106
97
71
71
86
81
82
82
88
80
83
83
91
84
77
98
98
91
93
102
90
90
90
97
87
87
94
88
96
96
89
80
87
87
87
86
73
82
82
78
77
76
76
68
67
79
79
63
63
69
69
62
71
72
63
63
67
63
57
57
63
67
63
63
63
40
55
55
61
51
58
56
56
58
65
48
48
54
51
52
52
41
50
71
71
49
54
54
51
51
57
63
52
52
53
52
71
71
48
54
54
54
22
40
44
44
43
41
39
31
31
35
15
31
31
42
41
52
52
45
33
39
39
49
46
40
31
31
46
39
46
46
10
39
46
46
31
54
41
41
46
57
48
54
54
63
63
57
57
60
71
73
73
78
86
82
82
91
71
94
97
97
103
110
109
119
138
135
137
150
158
165
171
175
175
185
181
199
210
208
223
237
233
246
255
255
255
282
295
303
312
326
334
345
355
372
372
368
382
397
400
412
429
430
429
442
454
465
472
474
498
511
511
532
539
556
562
565
575
575
596
598
601
606
615
625
632
639
650
658
671
678
680
699
706
705
720
731
734
733
748
748
754
755
759
762
774
776
782
789
792
803
806
804
815
823
828
824
836
834
837
846
846
846
842
849
853
856
850
859
858
865
859
873
862
862
876
868
873
878
876
882
877
871
876
876
872
877
876
868
875
879
854
868
872
874
872
875
876
878
871
871
869
867
863
875
864
864
856
866
858
856
862
858
860
862
862
860
860
851
855
856
852
859
849
850
847
852
837
837
846
839
840
839
841
847
838
831
834
835
830
843
833
828
839
829
820
828
826
815
814
813
813
822
813
815
816
816
816
823
819
818
815
818
810
814
813
811
804
804
807
805
799
799
799
798
799
807
797
796
805
801
792
798
797
797
790
788
782
781
775
775
770
774
770
765
765
762
775
783
760
764
754
753
752
750
746
745
739
741
731
730
728
717
736
727
720
713
713
720
717
709
704
708
710
708
703
705
698
700
694
689
694
696
686
677
681
682
669
682
682
676
678
679
671
671
670
674
670
665
666
667
654
649
654
651
653
636
645
652
638
639
639
636
639
636
639
633
636
639
630
620
622
626
609
628
618
626
616
615
620
610
618
621
621
601
618
623
618
613
612
612
607
606
602
607
606
598
591
602
602
607
597
602
615
604
593
593
602
599
599
602
596
598
591
575
590
584
566
591
579
579
595
586
580
586
584
583
579
579
575
583
579
575
575
571
571
583
565
566
581
570
561
574
574
571
567
572
567
569
547
547
567
562
559
565
553
550
559
558
548
550
550
549
543
543
555
541
543
538
536
536
534
534
524
528
537
526
511
511
511
511
496
511
511
511
511
511
511
511
511
505
507
510
506
506
497
502
490
487
487
486
487
490
479
482
480
503
482
481
478
483
474
445
470
470
468
468
458
458
463
457
447
452
447
444
449
437
442
453
442
432
439
434
429
431
426
422
415
415
415
414
413
406
407
397
400
408
398
396
398
398
392
402
390
388
391
385
382
379
382
370
370
368
364
379
366
357
366
366
356
382
362
354
357
367
350
352
349
342
341
342
342
346
346
328
334
314
325
330
324
326
325
319
318
317
324
309
309
314
318
326
301
302
275
297
297
295
287
294
293
287
304
293
294
278
288
290
287
294
273
279
274
271
272
255
274
255
255
255
255
255
255
271
255
255
287
255
253
278
255
249
251
252
247
245
243
244
241
242
242
238
241
239
242
242
236
242
240
239
238
232
234
239
227
224
229
223
223
216
215
230
230
214
209
210
218
212
208
202
212
207
203
206
200
196
198
193
190
204
186
185
198
191
189
189
187
212
190
191
203
191
187
184
190
177
179
188
177
173
178
174
177
180
172
182
175
175
167
177
177
176
175
169
176
181
174
165
166
159
173
159
159
170
163
163
164
172
166
166
171
161
167
171
166
156
158
159
157
151
122
158
143
147
124
145
148
150
144
148
158
158
151
145
146
146
141
143
140
166
139
135
132
133
132
138
145
132
148
127
140
142
138
138
153
135
134
138
137
131
127
137
127
130
120
134
135
123
125
134
132
127
127
134
126
126
122
127
125
125
122
122
117
115
127
118
113
118
122
117
119
134
115
123
115
114
116
90
90
121
113
116
114
110
108
106
103
105
102
102
100
100
107
99
92
104
105
101
105
102
107
98
98
93
92
76
76
89
92
76
83
83
91
83
90
90
88
86
79
79
89
86
91
91
102
77
84
59
59
73
74
78
74
74
71
75
68
68
72
63
74
74
69
70
91
91
71
68
44
70
70
63
52
62
62
63
71
55
55
55
41
55
55
58
57
55
55
63
62
52
62
62
51
57
54
54
58
68
57
57
51
51
48
48
42
50
41
27
27
54
43
45
45
52
50
53
53
46
48
54
54
47
31
51
41
41
43
56
37
37
36
51
15
15
29
44
36
36
47
39
44
50
50
47
51
51
51
49
50
58
58
57
43
69
69
58
28
63
63
66
73
84
82
82
94
93
95
95
100
112
114
111
125
127
140
146
145
159
155
164
170
170
186
186
197
195
206
212
222
229
240
252
283
255
269
255
294
297
275
308
324
331
339
354
361
361
368
383
389
404
423
430
429
444
459
463
474
479
497
505
511
527
528
542
550
556
568
568
590
593
597
611
623
632
634
647
660
665
671
684
688
698
702
704
713
731
726
729
750
750
747
757
764
772
776
788
791
797
802
817
810
809
807
823
818
824
830
831
835
846
847
847
848
853
851
855
859
863
862
860
865
857
866
864
874
867
871
871
887
876
873
871
875
875
875
884
886
876
878
873
874
874
878
870
872
877
870
875
870
863
865
866
868
871
865
868
868
879
870
860
871
862
860
844
858
854
854
855
852
844
850
852
841
847
853
846
841
850
850
846
843
842
831
842
838
838
837
831
831
826
821
822
831
822
820
828
825
829
825
828
828
822
828
823
817
816
822
810
805
816
817
817
808
813
814
816
815
815
815
815
807
807
807
812
807
808
797
804
799
794
788
797
787
789
790
788
787
780
779
779
777
780
781
773
773
774
777
764
753
756
753
749
749
751
743
741
739
734
736
734
740
729
730
735
724
717
717
730
718
713
708
701
703
701
695
697
696
694
690
685
691
699
685
677
678
679
679
675
675
667
666
663
663
663
659
661
654
649
657
658
652
625
651
647
639
658
639
646
639
631
633
633
635
630
628
624
623
617
622
621
620
619
619
626
616
628
622
615
609
611
615
598
608
608
607
621
624
604
606
590
609
603
605
610
607
607
607
608
606
602
596
602
607
598
591
591
594
594
593
594
596
590
596
599
591
593
596
594
589
596
595
586
580
583
583
575
582
582
580
575
580
575
572
575
580
574
569
580
579
572
568
580
563
567
564
558
564
555
551
551
547
555
554
556
545
556
554
554
544
548
543
543
550
535
542
533
530
532
524
526
533
533
511
511
511
511
511
511
507
504
503
495
498
498
487
490
485
482
485
480
479
489
486
477
477
496
482
479
478
484
479
480
463
474
473
474
470
465
463
461
455
453
452
451
447
455
455
454
450
450
447
443
441
444
440
441
438
437
430
424
429
415
421
412
415
423
415
411
411
413
413
410
410
405
412
423
400
392
394
391
383
388
382
386
383
371
382
376
372
381
381
371
374
359
366
360
362
361
361
357
351
354
351
339
343
341
338
367
336
338
340
340
340
324
331
327
329
323
319
326
319
311
302
315
307
317
272
302
319
308
297
306
306
297
297
306
298
300
283
287
287
285
279
287
277
274
287
279
269
278
278
273
279
278
255
247
247
271
270
255
255
255
253
252
255
255
244
247
250
229
254
250
242
253
243
243
244
246
242
242
237
234
247
234
228
212
230
221
218
223
219
197
211
213
217
218
213
212
214
216
215
215
204
210
204
201
198
184
195
197
187
192
193
194
194
192
183
195
191
192
188
189
185
185
188
184
186
187
191
184
184
190
189
177
190
193
183
184
171
187
185
174
184
182
179
179
165
170
165
172
173
169
178
175
167
165
174
143
173
170
167
172
170
167
167
161
172
172
159
157
167
167
146
157
159
158
165
159
168
164
157
159
166
152
156
158
153
154
159
159
146
145
150
154
149
154
154
150
155
155
151
147
154
157
129
151
155
151
141
144
126
141
141
142
122
139
143
135
139
144
140
149
144
134
151
142
140
138
134
141
127
127
132
133
133
115
127
129
126
135
125
127
137
132
125
127
127
121
122
116
119
111
114
106
104
106
106
102
89
102
107
100
89
100
108
97
97
95
108
90
90
90
87
86
80
84
84
93
69
87
87
95
90
84
84
86
98
85
85
87
84
83
83
52
75
78
73
73
78
77
65
65
94
79
70
70
69
67
70
70
61
70
63
67
67
69
59
63
63
63
63
69
69
64
63
69
69
58
52
58
55
55
63
54
44
44
66
54
51
51
55
56
62
62
57
49
63
55
55
50
44
50
50
43
45
39
39
42
48
41
41
39
18
41
41
42
50
41
39
39
57
43
33
33
46
38
31
31
42
36
36
36
40
31
28
29
29
38
31
36
36
38
31
43
43
40
50
43
43
49
52
54
60
60
59
51
53
53
63
62
66
66
80
78
79
79
90
89
108
106
113
116
120
123
123
133
131
151
145
156
159
161
172
179
194
200
212
210
225
238
242
255
255
255
272
281
281
287
302
301
316
331
331
340
358
366
376
386
392
406
415
415
434
442
455
475
469
482
482
495
502
504
511
526
532
542
556
574
573
575
602
600
614
635
625
638
653
658
648
660
660
670
677
690
694
695
709
695
718
723
732
747
752
756
767
766
766
770
774
777
780
782
791
791
796
791
799
804
806
817
813
820
835
828
824
828
835
831
834
838
842
836
839
839
835
835
834
846
837
842
852
846
840
839
851
844
846
831
845
844
845
839
834
841
836
839
828
828
845
838
828
831
836
828
827
829
830
830
823
825
824
824
820
821
812
819
810
804
810
810
804
803
807
799
804
806
807
807
800
806
799
796
791
799
794
776
794
786
767
789
796
796
791
792
791
789
788
793
788
784
786
793
782
777
786
778
779
783
778
780
777
771
771
771
777
778
772
769
770
765
764
767
766
770
765
758
758
758
756
751
748
756
746
755
745
748
748
753
742
736
742
735
735
737
732
733
724
719
716
715
710
717
725
711
716
708
692
700
700
690
697
701
695
697
687
686
682
680
675
679
673
670
677
666
660
662
665
660
660
660
660
663
658
647
653
664
654
661
645
646
654
647
641
643
637
633
636
634
639
639
639
639
639
634
637
639
632
626
639
630
620
619
623
615
614
616
614
620
615
617
616
618
618
609
609
608
613
604
596
593
595
588
582
572
582
583
583
582
584
588
582
580
585
587
580
573
573
580
583
585
586
580
589
591
587
591
569
588
590
581
591
595
582
585
590
590
587
590
590
570
590
581
575
581
577
581
570
573
575
579
572
569
574
578
573
575
584
574
572
566
562
562
563
566
562
553
556
574
548
548
555
548
549
551
548
551
543
543
543
536
546
542
511
511
535
543
535
511
534
528
511
526
532
511
511
511
511
511
511
511
509
511
511
506
500
500
503
502
495
506
492
490
493
487
485
483
490
482
480
482
487
471
473
471
470
463
463
463
460
459
459
455
454
453
452
450
441
452
443
442
437
439
438
437
434
430
436
423
415
415
415
420
423
415
409
415
415
412
408
410
410
409
406
404
402
399
391
397
368
390
395
395
381
394
387
382
384
379
374
376
374
372
374
371
359
366
355
364
361
352
349
361
350
339
339
356
348
347
346
342
343
349
339
340
331
342
335
317
324
323
304
297
299
272
305
302
302
300
295
293
295
291
297
302
302
305
304
307
294
289
294
287
287
292
282
292
286
279
279
278
283
287
282
281
276
285
276
285
274
271
255
271
254
255
255
247
247
241
241
249
249
241
240
227
231
228
230
234
233
233
232
238
207
227
230
205
226
233
221
226
238
231
231
221
214
222
225
242
222
222
225
211
215
211
212
221
208
204
219
212
200
214
210
189
189
202
202
198
205
199
202
203
198
205
192
195
204
191
181
190
191
185
186
191
186
194
194
194
191
185
188
195
181
176
191
182
172
182
180
191
182
178
174
181
167
178
177
174
182
182
173
167
183
178
169
176
167
168
172
159
159
167
159
159
168
167
181
168
172
195
167
167
161
167
166
145
164
164
159
157
151
159
153
150
158
153
166
163
158
152
158
158
159
159
156
159
154
173
147
147
145
151
151
145
151
159
143
141
144
151
149
154
143
150
143
143
135
143
137
142
143
105
140
139
132
125
127
131
137
135
132
135
125
127
132
125
135
135
126
121
138
126
116
116
122
112
121
122
118
124
123
115
127
121
106
122
112
119
124
124
105
105
110
90
105
102
104
108
109
103
106
80
110
110
106
105
95
107
103
96
100
98
97
97
94
90
87
87
73
83
92
92
107
92
59
85
85
87
95
87
87
85
90
61
61
85
78
82
82
82
79
71
78
78
73
78
74
74
73
76
81
81
74
68
80
71
71
72
75
72
72
76
71
67
67
63
61
62
62
62
72
63
71
71
62
61
70
70
70
69
70
70
58
78
74
74
79
74
81
82
82
78
80
78
78
99
84
89
89
98
79
105
94
94
108
118
123
123
148
137
139
146
129
154
172
167
164
182
186
186
189
198
206
220
224
231
242
249
252
255
272
278
293
287
292
302
310
317
327
334
351
351
335
363
378
392
405
419
425
438
449
458
456
471
454
489
494
504
511
511
531
542
541
541
556
570
576
586
603
603
608
622
636
633
647
650
658
660
671
671
683
687
703
705
714
723
723
724
729
742
746
757
758
767
766
774
767
774
778
786
787
791
799
809
812
802
812
815
815
824
826
829
826
826
831
828
834
831
842
835
841
849
838
833
839
841
837
838
842
851
851
847
839
842
840
842
851
845
844
852
842
836
836
834
836
836
840
839
844
839
843
840
840
834
834
833
836
839
836
828
823
822
817
816
812
819
813
814
812
808
806
806
799
805
805
815
804
792
794
793
793
786
783
790
783
787
791
784
786
782
781
784
787
782
774
786
786
776
775
772
775
762
767
771
766
760
766
756
757
759
769
754
753
762
758
752
755
748
747
747
743
743
741
736
742
732
725
724
735
723
720
732
722
721
722
718
715
717
707
704
705
705
703
704
692
690
701
690
684
694
680
683
700
686
670
678
671
671
672
663
674
665
661
661
663
654
644
647
643
639
639
644
638
639
631
633
632
631
637
629
630
633
622
616
615
615
610
613
618
612
610
608
599
602
605
602
613
609
606
598
598
593
598
598
589
590
591
591
588
586
559
584
584
583
591
577
582
596
586
580
580
567
575
572
575
575
575
575
573
573
571
575
581
573
575
584
578
557
578
579
573
574
572
570
568
574
574
578
569
566
557
557
561
575
564
556
560
567
565
559
556
562
564
559
559
560
559
554
553
543
552
550
541
554
554
550
543
543
543
535
552
547
548
545
548
543
537
530
543
532
529
529
534
511
532
527
527
530
530
531
526
511
527
511
511
511
511
511
508
510
503
509
506
504
494
499
495
495
495
496
494
494
487
492
499
468
481
484
479
484
482
478
476
463
467
465
464
462
471
464
464
460
466
459
453
455
452
453
458
446
450
460
439
438
432
434
439
433
432
438
430
396
396
426
428
425
423
420
423
423
403
414
409
407
406
397
406
406
391
389
394
390
389
410
410
389
372
388
379
380
376
378
383
377
368
379
366
360
364
362
353
358
358
358
355
351
356
356
357
357
357
345
344
354
342
329
340
334
325
324
326
323
313
319
323
291
319
322
313
313
310
325
311
301
300
308
293
279
294
292
294
287
287
285
287
286
280
286
287
279
276
276
282
282
255
270
268
255
255
255
255
255
244
255
249
254
255
254
253
254
250
249
250
250
244
242
239
235
230
232
234
230
221
228
230
222
220
206
220
225
222
218
220
224
211
211
215
216
212
210
201
206
210
202
200
206
199
204
206
198
206
199
195
191
197
194
197
197
181
191
195
186
196
183
178
181
183
174
182
185
179
186
177
180
185
169
178
182
180
180
167
146
167
169
150
166
170
167
167
167
153
166
175
137
167
181
156
157
164
166
157
158
158
127
159
161
151
158
153
127
165
153
159
170
159
156
162
158
157
151
158
151
151
171
171
148
147
142
157
140
146
158
150
141
158
154
149
150
158
151
155
143
146
137
140
138
138
133
135
153
142
136
142
138
127
136
142
126
141
139
133
136
132
138
125
134
107
131
131
120
132
127
109
127
132
140
133
123
124
131
135
127
121
124
127
116
116
119
119
116
116
123
118
110
119
115
122
120
122
118
117
122
123
82
108
118
119
109
109
109
118
114
115
99
107
112
118
120
113
114
118
110
104
106
106
111
111
103
104
95
101
99
95
96
96
100
93
97
96
96
107
100
84
92
92
92
89
98
86
86
82
85
71
71
76
73
78
78
63
57
76
84
84
78
69
74
74
76
73
76
76
68
71
69
69
59
63
72
58
58
63
57
62
62
74
54
52
52
67
62
45
45
62
54
84
63
63
51
68
57
57
67
65
56
56
62
69
50
50
57
62
63
63
63
67
76
78
78
79
87
82
82
88
94
95
95
96
103
111
101
104
118
122
125
132
142
146
149
149
159
164
168
173
186
185
194
215
210
213
230
234
237
247
255
255
271
275
282
291
303
303
312
320
330
350
350
353
370
359
383
394
402
410
419
423
432
445
458
473
480
487
506
506
506
511
532
543
543
560
551
566
583
583
590
600
614
631
629
639
635
658
657
671
678
678
687
702
708
710
718
719
729
738
743
751
752
757
769
776
772
778
786
796
794
799
804
812
812
815
812
824
829
843
832
836
839
840
836
839
844
847
847
855
860
860
855
863
864
866
866
871
864
866
872
864
860
860
858
857
860
854
863
864
863
865
860
858
860
855
860
871
871
859
853
855
851
847
840
847
849
847
846
847
843
844
846
837
842
856
844
836
846
841
841
837
814
831
838
831
830
825
824
823
822
820
822
830
820
816
822
822
820
819
822
814
814
813
807
811
804
805
799
799
799
815
799
801
806
803
805
802
804
798
805
779
795
792
792
793
796
788
792
793
790
783
790
786
788
793
786
782
780
775
775
776
771
775
771
767
767
767
754
754
758
753
750
748
742
740
743
734
732
731
728
733
727
726
727
716
705
706
696
696
701
702
695
694
696
690
687
688
687
695
685
681
692
684
676
669
667
667
662
660
665
665
661
655
651
648
655
655
649
650
661
647
639
646
637
639
637
633
631
628
630
630
624
624
628
623
615
615
626
618
613
622
615
616
618
612
596
610
607
615
605
601
609
601
597
597
607
598
593
604
599
597
603
600
597
604
591
595
592
590
597
581
593
598
588
581
594
594
588
593
586
586
611
591
571
589
587
590
588
565
580
587
575
573
574
575
575
568
574
574
578
594
579
581
575
581
570
572
572
579
570
568
566
561
563
566
564
564
559
559
557
561
561
564
562
553
560
566
558
540
556
552
549
546
543
543
541
535
534
536
532
537
533
534
534
543
530
532
526
526
511
511
511
511
511
507
506
506
504
509
500
498
509
506
472
498
498
494
501
495
492
492
463
483
477
477
476
479
465
470
478
468
464
464
463
461
462
458
458
461
459
451
448
445
450
452
440
439
447
436
424
431
428
427
422
424
422
427
422
422
422
409
415
420
409
395
415
406
392
398
394
389
394
388
394
392
387
388
384
388
386
373
373
381
389
374
368
368
366
367
359
358
359
361
355
356
353
359
350
348
352
351
348
340
340
346
342
337
334
332
330
329
331
327
328
326
322
297
326
329
322
316
318
318
313
295
308
308
309
309
303
304
296
298
287
289
290
297
283
280
279
298
281
278
270
276
281
255
255
255
255
255
255
245
255
251
247
244
248
247
245
247
239
246
247
239
240
225
238
239
224
224
231
235
223
217
223
219
217
222
222
196
223
215
215
221
218
233
213
215
234
214
201
201
200
195
212
206
198
212
203
199
190
208
202
207
217
199
207
174
193
194
191
185
186
186
182
214
191
183
196
189
186
197
192
189
204
191
184
190
183
185
182
184
187
183
179
179
177
176
158
181
177
176
189
182
172
182
178
181
174
175
174
171
167
159
165
146
159
161
161
159
174
166
157
166
166
165
158
166
167
169
159
159
153
159
154
153
151
159
150
145
145
150
151
153
143
154
154
154
151
152
145
151
150
125
148
152
142
133
143
139
141
142
142
159
146
139
135
138
136
142
142
144
135
145
134
127
127
135
127
116
122
124
133
119
119
115
127
127
127
121
126
115
123
116
116
118
117
114
110
116
111
103
110
97
97
110
110
101
116
115
106
108
103
103
109
110
78
78
95
99
103
93
93
96
119
95
89
89
112
103
95
96
98
98
102
109
95
94
103
97
97
87
90
89
89
74
95
85
85
90
95
92
92
84
90
90
89
89
97
90
110
91
91
87
94
89
89
83
90
85
85
87
102
90
85
85
94
87
93
93
91
102
100
101
95
110
112
106
111
111
105
108
111
127
108
115
114
117
122
127
138
127
151
159
144
173
193
200
195
214
207
207
205
207
226
233
238
242
255
255
255
279
281
294
309
309
318
345
346
341
356
348
367
367
378
396
399
408
407
426
432
442
463
460
471
491
498
481
511
511
532
546
550
555
575
575
563
588
588
596
607
601
626
649
638
649
666
670
681
692
694
703
708
711
718
724
735
735
735
741
748
766
764
764
780
777
785
798
797
799
808
807
812
818
823
830
827
820
835
828
828
829
844
844
843
851
847
852
857
861
855
859
863
871
864
862
867
856
853
862
854
858
858
861
863
856
862
855
861
858
864
868
854
861
853
854
848
852
848
852
842
844
830
846
846
841
840
848
847
850
839
844
845
848
832
834
831
831
839
829
823
825
823
826
818
819
819
818
821
822
827
820
812
816
799
815
812
804
809
804
799
802
792
798
798
793
794
809
809
799
793
785
794
804
794
792
799
794
795
788
784
775
783
780
779
791
778
780
788
783
783
780
782
782
786
783
775
780
768
772
770
777
758
775
759
752
754
754
752
768
750
746
742
742
743
740
738
735
738
728
730
735
721
713
718
715
707
710
703
704
700
695
693
693
695
695
692
683
683
687
679
669
674
671
669
664
660
655
655
651
651
650
652
649
645
647
651
651
639
639
638
636
631
628
628
622
621
615
615
616
615
615
612
615
618
610
593
607
607
607
609
606
607
602
599
595
594
594
599
601
593
594
600
596
589
594
590
593
592
590
594
594
591
583
589
585
581
591
580
582
590
586
580
578
573
575
574
574
580
575
571
570
561
561
564
550
565
562
569
562
556
557
558
563
555
558
566
559
563
564
563
566
566
561
558
558
568
562
549
556
550
551
547
527
554
548
543
551
547
550
550
541
543
557
542
511
542
540
540
533
534
532
548
511
527
527
525
530
526
521
504
529
526
511
511
511
511
511
511
510
510
507
498
498
496
497
503
497
471
506
500
500
487
485
485
484
479
486
481
478
471
472
472
470
466
464
464
469
463
452
462
459
447
458
454
450
455
443
445
441
443
445
436
436
436
435
434
421
430
426
425
426
428
425
427
415
415
419
414
417
413
414
419
406
396
404
404
402
397
394
390
401
396
402
396
389
390
386
385
358
386
378
369
372
366
365
366
366
366
362
363
363
358
357
356
362
353
351
337
346
337
346
342
337
332
338
334
334
323
325
325
325
330
322
321
319
329
319
313
318
311
316
308
310
311
283
295
297
317
294
303
289
298
298
299
287
285
294
287
287
286
286
286
281
271
271
273
270
277
267
255
279
255
255
255
255
255
255
270
230
255
255
271
255
253
250
255
249
250
255
242
237
243
240
241
242
244
244
246
245
247
237
240
236
239
233
235
244
234
244
222
230
221
221
218
240
221
223
223
223
219
223
229
224
222
229
220
205
214
212
207
204
198
206
207
199
208
208
210
214
201
201
212
223
210
201
203
204
201
198
196
195
203
199
196
193
196
198
193
199
183
195
193
193
191
198
200
190
196
187
191
195
191
181
190
186
181
191
194
182
184
190
192
191
191
191
191
190
191
191
183
184
182
186
176
182
189
182
165
179
179
177
186
182
183
187
178
179
179
180
182
178
169
176
195
167
165
170
167
173
174
170
175
175
167
170
173
167
173
169
169
167
169
164
157
163
127
153
158
166
166
159
151
158
163
159
165
153
155
167
158
148
148
147
158
149
148
146
146
149
139
142
144
123
151
145
127
156
150
136
142
140
127
147
147
134
103
137
127
111
133
134
141
129
134
159
134
127
134
138
127
131
126
112
135
119
119
113
121
119
111
121
118
127
124
116
116
127
120
118
120
116
111
115
114
113
116
118
120
120
112
127
118
113
114
122
117
114
124
134
133
127
127
133
140
138
97
97
134
157
140
141
156
146
159
159
184
174
185
191
194
197
206
214
214
212
234
237
238
249
246
254
221
255
276
279
291
299
306
315
327
338
345
358
369
366
376
376
390
394
389
406
415
423
436
443
455
464
476
486
497
508
511
511
511
542
543
553
562
562
570
578
588
598
594
608
620
630
635
646
657
662
665
678
686
693
702
708
718
723
723
723
728
736
743
744
753
760
770
765
770
781
786
793
799
804
807
813
807
821
818
820
830
830
829
831
839
834
829
834
838
845
847
847
858
854
853
858
856
857
863
848
854
867
855
855
844
852
854
856
856
847
858
860
863
860
856
858
859
853
853
865
855
842
852
850
844
844
846
842
829
846
839
842
842
837
845
835
827
850
839
828
834
835
825
827
824
822
828
828
822
822
818
820
827
816
817
830
824
801
820
818
816
814
815
807
810
799
786
803
810
806
806
799
786
815
806
813
806
799
803
804
799
799
796
791
791
788
794
781
784
783
790
778
778
777
782
780
775
775
777
770
774
766
758
760
760
754
752
751
755
740
738
743
734
735
735
736
735
726
728
723
722
720
718
723
711
711
706
695
692
691
690
687
686
684
683
681
681
669
681
676
671
674
667
663
665
657
652
650
628
639
639
639
639
633
635
639
638
631
631
628
627
634
639
628
620
620
620
611
614
610
612
609
607
622
604
604
606
599
590
613
613
598
600
604
602
595
598
598
593
594
583
583
585
590
591
585
586
591
575
581
586
581
587
587
586
588
583
582
575
575
579
575
579
573
559
574
572
565
570
573
575
582
572
580
574
574
571
570
568
574
577
563
570
584
566
553
556
557
556
558
559
566
562
563
565
561
555
555
562
552
555
565
564
548
554
550
543
546
543
543
542
543
538
541
538
548
536
540
543
543
535
529
534
530
511
529
542
511
511
511
511
511
511
525
511
511
511
511
508
506
503
503
508
506
502
500
500
498
494
491
492
493
485
490
474
490
480
482
484
465
476
472
479
479
467
467
463
465
465
463
441
458
461
458
452
452
452
447
443
442
446
445
439
436
437
437
430
430
421
406
435
415
404
422
422
415
418
415
411
412
407
407
404
403
407
400
396
399
399
389
385
391
391
397
388
386
383
382
375
380
377
372
383
369
378
371
364
356
362
351
351
356
354
356
350
357
343
347
347
350
365
344
319
353
342
333
331
336
329
322
319
327
327
329
319
318
315
315
325
313
316
324
310
301
307
300
301
284
296
298
295
287
285
288
288
287
289
281
290
293
287
280
282
282
255
277
268
279
271
255
279
255
255
255
255
254
254
255
255
245
254
251
255
246
248
252
251
243
250
241
246
238
228
231
241
234
225
236
236
228
207
231
228
231
230
227
218
229
231
234
221
218
223
219
209
218
215
213
229
216
211
211
223
211
212
216
218
194
209
210
222
210
201
210
203
205
206
202
205
205
199
183
201
201
206
206
197
202
219
202
196
198
194
169
196
190
186
189
183
191
189
192
199
185
191
191
198
174
189
194
182
189
186
200
183
181
178
174
177
178
189
173
176
188
182
168
178
178
174
191
175
172
178
173
159
166
161
159
167
160
159
172
158
169
158
164
157
159
159
159
159
162
147
159
152
154
157
145
148
159
150
141
148
146
149
144
146
146
143
139
143
143
141
142
149
144
140
143
134
125
125
127
143
122
122
122
127
123
124
125
124
120
125
125
119
127
119
108
112
90
108
103
100
110
111
99
127
127
101
103
119
100
103
114
103
97
100
95
97
97
100
110
98
97
87
87
94
63
92
92
97
89
87
87
103
94
89
89
89
100
85
86
84
84
86
85
71
79
79
88
79
79
79
81
75
88
88
84
72
82
82
87
85
87
88
88
98
93
87
87
92
93
108
90
90
96
102
105
100
92
92
110
114
109
126
124
122
127
131
138
145
148
146
113
156
163
159
164
164
172
182
185
191
197
206
207
211
215
221
231
238
208
250
255
255
255
274
278
297
300
300
305
314
324
331
343
345
364
370
373
391
409
410
429
430
434
443
454
458
477
480
479
494
494
505
511
526
529
543
559
558
556
569
588
581
594
591
608
607
614
618
625
636
639
644
644
655
674
671
670
686
687
689
694
712
703
708
711
717
720
732
719
724
732
741
720
736
736
750
752
754
752
760
754
762
763
760
763
766
762
761
770
771
766
756
768
770
757
779
779
776
774
777
775
777
776
778
774
765
772
777
764
765
768
762
765
767
772
765
767
759
759
763
768
767
762
753
764
761
751
748
752
747
747
750
741
751
748
743
748
748
747
751
751
741
747
747
739
734
740
738
737
738
732
731
733
726
734
728
727
739
727
723
740
732
709
709
734
728
719
720
724
716
717
719
709
712
716
714
709
714
728
710
708
710
706
707
703
703
702
702
700
695
693
698
694
690
688
687
691
676
676
679
675
676
670
668
674
669
655
655
655
649
646
638
629
630
634
622
612
619
622
616
619
610
620
620
611
614
611
607
610
610
603
606
606
596
592
594
590
591
593
581
596
581
575
585
578
579
583
569
560
575
570
570
553
556
550
543
538
538
538
535
535
534
536
530
535
529
532
547
538
528
534
534
511
511
511
511
527
511
511
511
528
511
511
511
511
511
511
509
511
511
511
511
511
506
511
511
510
508
501
499
511
492
498
511
506
497
510
482
508
502
498
498
499
498
492
496
498
494
494
481
487
503
492
468
506
492
487
490
494
487
492
479
485
483
482
477
480
482
479
471
471
472
478
480
475
478
476
475
473
471
468
473
474
472
465
466
471
456
457
455
455
453
453
455
455
454
452
450
453
452
460
463
449
452
453
443
436
439
435
437
434
430
436
431
431
421
433
429
428
439
425
430
435
423
415
419
415
413
402
404
412
406
402
399
400
402
402
398
389
398
403
393
389
394
391
383
386
382
366
381
375
378
372
373
367
361
366
374
374
362
360
368
364
359
346
358
358
353
343
345
353
348
349
337
338
337
335
332
327
331
327
327
352
332
326
327
319
316
312
316
317
309
310
280
310
296
302
298
301
303
296
300
297
297
287
287
296
292
297
273
282
287
278
255
240
255
255
255
255
255
255
267
255
255
255
255
255
255
255
255
238
255
255
254
249
247
250
243
242
235
229
241
242
239
237
242
255
255
234
232
242
231
191
230
220
219
213
211
210
217
215
217
213
214
217
214
209
207
211
211
205
210
202
199
199
195
190
193
191
193
185
188
195
174
184
191
186
185
190
182
190
190
179
147
166
169
166
173
157
164
169
167
161
166
165
165
167
167
174
153
171
167
165
165
159
166
157
155
165
146
148
150
150
148
166
143
142
149
135
138
145
138
143
137
140
139
139
134
125
134
127
111
127
127
131
127
114
135
129
127
133
127
127
131
126
120
114
122
122
121
118
118
119
99
119
116
113
119
106
120
116
123
115
109
118
110
110
113
107
106
114
109
103
106
105
103
106
97
84
84
113
103
104
108
122
109
106
106
103
105
103
99
101
101
98
102
100
94
107
103
97
114
103
103
101
98
106
103
99
95
93
93
97
94
90
90
89
87
93
93
107
81
82
87
87
81
86
78
86
86
85
87
86
86
77
78
69
69
68
78
75
75
71
60
68
68
35
63
70
62
62
63
63
43
43
90
63
70
70
69
64
62
62
79
62
53
54
54
51
49
54
54
52
62
51
51
43
52
49
49
38
61
49
54
54
59
54
45
45
38
48
45
45
46
38
35
35
25
31
39
37
37
39
45
49
49
42
46
39
39
25
39
39
39
37
39
31
31
39
35
27
31
31
33
39
39
39
29
38
42
42
54
40
38
38
31
25
39
31
31
38
37
31
31
38
33
34
34
37
29
34
34
31
31
28
31
31
26
41
44
44
38
48
45
45
39
52
49
49
54
45
53
70
70
63
62
60
60
60
95
77
77
86
88
100
106
99
99
114
113
119
130
129
127
143
146
148
158
159
173
178
194
194
193
205
215
212
229
238
246
248
255
255
270
277
286
287
303
314
316
327
312
339
351
351
355
374
370
377
391
411
407
409
430
430
437
446
442
464
468
471
478
488
492
511
511
511
511
537
535
537
554
531
561
567
572
573
585
579
588
593
615
612
609
614
639
628
625
633
633
634
649
650
655
662
660
655
665
665
661
671
669
671
689
684
676
685
676
693
692
694
694
703
701
695
700
698
696
708
700
695
696
700
697
696
707
713
706
703
706
711
707
713
713
706
707
711
705
705
712
706
692
700
694
693
694
691
692
693
695
699
693
706
692
689
689
688
703
698
688
686
693
688
690
686
688
693
691
690
690
694
691
685
694
697
690
685
685
692
692
685
686
686
686
685
679
677
677
674
671
669
671
675
671
672
652
668
671
670
670
666
671
663
659
660
657
658
663
657
653
667
658
648
658
652
651
647
636
647
647
639
639
637
635
631
639
629
622
635
628
612
622
628
621
620
620
618
617
615
606
603
612
602
593
593
594
602
594
581
586
588
583
582
559
575
579
575
578
568
574
570
561
574
566
558
553
553
554
551
545
542
542
547
541
543
528
537
535
536
531
551
538
527
525
511
511
511
511
511
524
510
511
511
506
511
511
507
497
508
511
502
504
500
499
501
500
486
496
489
487
487
476
488
487
486
481
484
491
484
484
470
483
481
486
476
482
488
467
477
472
471
477
477
465
468
474
468
461
468
470
469
470
468
468
469
463
463
464
452
469
453
458
467
460
460
451
458
455
457
463
446
474
463
451
458
432
455
461
448
448
459
452
440
447
447
445
444
444
442
444
443
439
439
441
439
449
425
438
447
436
428
430
428
421
424
424
422
425
419
419
421
419
426
415
417
422
423
390
412
413
407
413
402
402
407
399
403
402
401
395
405
405
400
402
402
386
388
391
387
361
384
384
388
377
375
378
377
373
395
365
367
375
378
378
364
368
368
365
359
358
366
361
347
356
345
346
357
340
343
349
346
333
342
343
341
341
338
338
338
341
327
338
333
331
335
325
327
341
324
321
318
327
317
324
324
319
319
319
311
319
328
318
309
305
306
287
306
293
302
294
289
287
292
286
287
279
282
275
282
282
277
276
274
281
287
255
270
255
255
255
255
255
255
251
255
255
255
255
253
254
255
250
250
248
238
246
244
242
246
238
239
231
231
240
238
237
233
236
239
230
228
230
230
225
225
222
223
222
221
211
215
217
220
219
217
218
219
212
205
214
215
217
202
210
212
211
211
199
204
176
206
205
196
202
201
194
192
196
196
191
198
176
202
197
195
198
184
194
194
199
185
188
187
186
188
182
178
181
182
178
178
187
179
182
176
170
178
165
166
175
175
159
157
159
158
159
154
166
159
159
155
158
157
158
159
153
154
165
155
152
158
151
151
156
147
146
150
127
147
150
147
144
154
144
146
155
151
148
150
151
127
148
143
143
118
118
135
140
137
140
142
136
142
150
146
141
148
150
141
146
132
139
143
135
103
136
142
142
138
120
150
154
142
137
148
148
148
151
148
146
141
147
137
144
135
153
129
135
122
122
135
132
138
140
153
142
140
138
119
147
138
136
138
143
141
127
136
127
121
126
91
91
125
126
132
127
135
123
126
129
127
137
121
127
127
127
112
104
108
103
93
116
92
87
87
91
91
94
89
89
94
109
105
114
113
108
109
107
103
103
109
100
108
100
103
95
90
104
100
105
101
102
111
111
95
93
98
87
87
93
87
102
87
87
87
83
84
85
85
87
93
56
56
92
91
90
90
88
82
86
86
85
82
94
87
87
79
71
102
73
73
78
79
69
69
78
79
78
78
68
78
79
79
79
78
74
71
71
77
67
70
70
69
68
77
77
73
63
70
70
70
65
71
70
70
63
67
60
60
70
69
67
67
71
77
70
70
77
64
70
70
59
76
65
71
71
73
73
63
63
76
82
89
89
87
96
97
97
100
104
101
106
114
107
109
118
122
121
134
138
142
135
151
157
168
168
174
182
181
190
207
198
205
218
219
221
222
238
235
255
251
255
273
277
297
297
279
279
322
324
324
342
334
349
359
364
373
375
383
391
400
404
415
421
436
455
452
452
444
444
475
479
486
494
505
511
507
511
523
532
543
511
554
569
570
568
579
583
587
595
600
600
608
613
615
619
627
629
639
637
644
652
650
648
656
663
665
671
671
679
687
703
690
690
691
694
703
695
700
706
700
696
698
707
703
704
708
714
716
715
719
716
725
718
717
721
721
729
719
712
714
711
708
706
708
711
719
711
713
712
716
716
711
715
723
718
712
718
718
716
711
710
709
710
725
711
711
706
708
708
704
703
713
706
701
710
702
703
706
703
703
701
703
707
700
696
701
698
693
693
705
698
696
702
698
697
703
698
706
701
695
692
692
690
694
686
684
690
695
682
684
688
686
689
688
687
686
689
679
676
680
679
683
672
672
670
677
654
660
666
664
660
666
662
653
654
647
654
651
650
647
647
639
650
626
633
633
636
631
629
628
630
630
628
631
624
617
621
627
612
610
623
614
601
606
602
591
591
589
589
591
591
583
580
578
575
579
569
567
581
572
557
566
560
555
551
550
547
547
543
546
546
539
539
541
537
538
549
542
528
540
538
537
526
527
526
527
511
511
524
511
511
511
511
511
511
511
511
511
511
504
511
511
511
511
503
508
504
502
498
489
500
505
495
489
489
492
499
495
496
496
479
495
491
497
496
495
490
485
495
491
486
488
486
487
489
492
492
487
490
489
487
490
489
494
490
484
484
491
479
473
478
475
477
479
470
478
475
470
470
472
473
474
478
465
475
469
466
460
462
459
460
462
454
462
455
447
458
457
455
463
463
464
463
466
450
449
451
451
445
447
446
436
441
435
439
440
434
441
432
436
444
442
433
433
438
434
439
431
428
430
425
415
423
417
415
423
409
414
426
414
408
414
415
412
410
410
410
410
409
399
402
385
398
399
389
390
397
391
384
396
386
381
383
388
382
383
375
375
378
373
372
381
361
368
389
364
356
364
356
357
356
356
355
357
351
350
348
354
350
350
337
343
351
342
332
338
318
329
327
330
324
331
327
322
304
332
326
321
324
329
318
318
313
316
316
308
306
308
302
301
303
295
301
302
302
297
274
306
294
292
295
287
293
293
286
284
284
281
275
281
273
252
279
269
274
284
270
269
276
274
271
255
255
255
255
251
251
255
255
252
255
249
252
255
255
249
255
255
248
255
252
247
251
241
243
243
242
238
238
233
240
244
238
229
238
234
225
230
230
227
226
219
218
224
223
218
209
218
216
207
207
204
206
211
205
207
206
210
207
199
203
200
206
201
201
198
203
199
189
194
187
189
189
188
188
190
191
183
170
185
191
186
205
190
195
182
177
183
183
181
156
175
182
175
175
165
178
176
183
173
177
183
187
180
173
182
178
177
178
170
180
173
163
172
168
167
167
170
165
174
174
170
168
171
174
173
170
158
174
169
167
170
163
171
159
157
159
173
173
162
157
159
164
180
159
159
166
169
159
164
161
155
159
153
158
169
155
148
158
159
159
159
158
158
166
162
155
162
173
159
158
145
150
149
171
145
150
151
149
164
150
151
149
149
135
159
147
150
153
161
150
153
150
124
146
142
145
134
146
151
141
135
142
136
138
138
143
141
142
147
132
137
140
135
139
138
127
134
127
135
140
125
127
114
121
127
137
137
127
125
127
123
127
119
118
124
123
115
118
113
114
114
112
112
125
110
108
110
127
127
113
114
104
127
109
103
108
112
95
105
97
103
107
107
100
96
110
98
101
95
114
102
102
102
103
76
101
96
94
89
89
92
95
86
86
77
94
87
87
85
86
94
92
92
93
79
90
90
93
94
95
95
97
90
95
95
82
88
90
86
86
89
90
104
95
95
101
107
98
104
89
89
115
104
110
127
118
116
126
126
125
134
134
142
143
143
150
157
157
159
170
169
182
199
187
192
202
215
213
222
223
237
233
231
240
248
255
255
269
278
287
287
286
289
306
310
313
314
326
334
335
355
347
360
351
381
377
390
405
404
408
423
426
426
437
444
452
458
467
467
475
483
487
495
497
508
511
527
511
535
542
553
558
562
571
571
580
583
583
593
596
611
604
614
626
624
617
628
630
637
643
646
655
653
663
671
673
673
671
687
681
684
697
691
685
684
687
693
692
697
706
705
710
711
713
716
714
715
718
718
728
724
716
718
718
719
719
718
722
719
719
721
721
727
719
720
719
739
726
721
730
730
725
721
722
716
719
716
711
715
712
713
710
705
710
723
710
708
716
710
709
711
703
703
703
703
703
698
696
695
690
688
688
693
688
685
694
690
689
694
693
687
692
687
685
683
683
686
680
675
676
682
671
668
682
671
673
678
676
679
676
667
668
667
671
673
663
664
664
667
662
653
660
655
657
662
655
662
653
647
654
632
650
655
647
647
654
647
636
639
639
634
633
626
630
626
613
615
615
616
618
621
615
612
619
608
600
612
602
596
575
588
588
590
568
579
576
579
574
583
576
575
575
571
568
568
570
561
562
558
554
556
551
551
551
541
542
551
541
545
551
540
536
539
542
533
531
532
530
532
527
511
511
511
511
511
511
511
511
511
508
510
511
504
511
508
511
527
511
509
508
511
502
497
506
505
496
493
493
500
502
501
496
502
498
500
499
501
496
500
502
489
498
498
494
488
497
487
487
490
492
492
487
489
491
495
492
492
490
488
496
501
486
484
487
483
485
484
484
480
483
475
479
479
480
486
482
461
480
490
479
473
478
471
475
476
472
474
470
467
468
467
469
473
468
468
470
475
468
461
468
464
465
464
456
460
435
455
450
451
447
453
448
445
454
447
440
440
452
443
445
452
440
446
444
431
430
424
415
423
413
414
423
410
404
418
412
399
402
402
404
415
413
407
407
412
410
413
401
400
407
404
396
398
394
383
388
398
386
394
387
387
388
392
386
391
368
378
391
382
384
378
374
369
368
366
367
364
367
362
363
364
366
345
345
362
370
358
348
356
351
348
341
344
336
341
335
332
336
338
306
333
335
345
350
328
328
334
332
319
319
326
315
319
311
311
312
314
314
304
310
331
310
308
306
306
301
306
306
300
298
300
303
295
296
294
294
285
282
295
286
284
292
282
285
284
282
286
280
275
275
274
273
255
274
255
272
255
255
253
255
255
255
255
255
255
282
255
255
253
246
255
255
240
250
247
242
237
243
235
251
246
242
246
239
235
238
233
238
221
249
231
244
226
226
219
223
214
217
215
214
208
218
207
212
225
210
217
209
230
217
210
200
210
206
197
198
198
198
204
199
194
198
169
198
201
192
196
207
198
193
204
204
201
195
202
198
195
191
191
189
195
196
194
185
198
195
187
192
194
194
189
191
184
191
187
179
186
169
179
189
189
180
183
191
179
176
203
181
181
178
184
183
184
147
180
177
175
193
169
174
183
174
174
164
187
167
169
151
174
186
175
167
176
176
167
175
168
167
170
167
161
166
167
159
159
166
159
167
171
159
170
165
166
143
161
159
174
162
156
151
154
157
154
156
155
155
155
147
154
153
153
156
148
155
159
156
141
158
156
149
146
146
146
143
135
135
137
127
127
140
137
135
156
146
136
144
132
127
127
126
122
118
115
110
112
114
121
105
116
104
122
122
105
118
122
111
114
114
111
117
99
122
112
107
114
112
110
124
110
110
109
112
115
116
114
116
110
123
111
116
112
111
110
101
100
114
105
100
110
103
105
105
74
108
110
85
107
110
101
107
102
93
93
92
99
82
82
77
82
79
79
79
78
74
77
77
79
75
80
80
75
71
87
87
72
78
86
86
89
68
78
55
55
77
78
63
63
79
79
79
79
86
88
86
86
95
88
94
103
103
86
92
94
96
96
91
108
95
103
101
99
99
99
105
106
110
113
134
127
127
112
142
140
140
141
147
150
158
159
163
170
169
172
186
185
198
213
210
213
236
235
237
250
255
255
255
255
267
282
285
294
302
301
311
319
327
333
352
358
365
375
362
390
399
402
411
424
436
436
434
441
450
473
444
468
486
494
500
511
511
511
535
543
543
560
567
583
581
588
599
599
598
601
614
615
621
630
637
639
650
655
661
667
679
685
688
690
702
702
696
702
707
707
713
724
717
721
723
727
731
736
755
751
748
756
759
758
749
747
756
759
763
756
779
779
766
759
764
760
765
775
768
772
778
780
767
772
774
773
780
772
778
767
771
772
778
778
766
773
764
770
771
770
764
768
764
749
766
764
772
764
767
764
766
762
758
752
752
752
761
758
752
751
753
749
742
740
748
745
743
742
739
740
740
732
735
741
740
740
748
727
727
743
742
745
745
751
751
754
752
751
751
745
750
753
746
741
742
746
741
748
735
740
740
733
727
726
728
729
738
727
725
733
724
716
718
717
715
718
719
711
723
718
719
715
715
718
716
705
711
715
706
697
708
699
700
698
692
690
686
679
677
681
676
683
672
669
669
671
666
661
650
659
661
658
654
648
649
635
643
637
634
635
625
630
636
618
616
626
626
602
621
615
614
615
615
611
604
605
601
598
581
588
593
586
584
586
579
581
583
580
580
582
582
575
575
569
574
570
560
562
569
558
553
558
553
553
551
556
554
553
551
543
551
551
553
558
541
543
539
539
536
542
534
537
536
536
538
535
535
531
528
530
540
533
532
532
539
527
511
530
511
511
511
524
511
511
511
511
511
511
525
511
503
532
526
511
511
511
511
511
500
511
511
499
507
503
505
509
511
509
506
511
503
500
507
510
505
503
504
504
510
501
499
498
497
507
500
489
489
501
494
484
483
490
489
487
492
482
485
466
486
486
480
476
487
481
478
484
476
472
442
471
469
468
463
470
470
455
470
464
466
462
452
452
459
466
452
441
443
442
441
438
438
439
445
439
442
440
442
438
432
438
438
430
425
425
430
426
421
415
414
415
413
415
422
413
413
414
401
413
415
402
397
399
399
397
396
374
374
391
390
387
382
384
388
382
377
380
385
378
372
375
373
372
372
366
366
365
355
351
351
352
354
350
345
352
355
348
328
351
346
345
348
342
346
335
331
332
328
326
333
321
321
311
323
310
308
311
311
313
311
310
314
313
307
306
307
302
311
281
301
306
298
269
269
290
293
293
298
287
292
287
279
282
281
274
291
281
255
285
271
255
255
255
255
255
255
255
255
255
255
255
255
255
255
253
255
255
254
248
252
247
239
242
242
242
245
243
243
237
240
236
245
240
231
247
238
229
236
236
231
230
252
227
231
219
234
217
222
214
217
217
223
231
222
212
222
222
217
210
220
214
207
211
205
208
212
206
201
208
219
206
205
205
212
183
209
210
204
207
207
207
193
201
204
198
192
199
203
192
192
195
194
197
196
196
198
190
191
187
189
177
190
186
169
183
179
176
168
167
167
169
178
166
180
169
167
167
171
176
170
170
169
172
168
167
161
159
159
159
162
156
159
159
151
162
157
172
165
165
153
166
191
154
153
154
151
153
154
143
154
143
139
143
120
144
151
145
118
157
144
144
137
166
146
143
146
127
138
143
135
135
149
143
138
144
143
155
146
141
150
139
149
149
146
148
131
155
143
135
139
135
142
136
142
151
134
132
135
135
127
139
138
142
127
131
131
135
133
110
127
125
124
127
119
116
119
119
124
122
122
124
135
115
124
117
119
114
114
108
111
119
110
100
102
106
104
110
108
110
111
107
106
105
110
106
113
108
113
87
87
97
95
100
63
63
94
94
98
98
95
87
90
90
89
96
101
88
88
98
102
96
88
88
96
82
85
85
83
82
84
79
79
83
74
81
81
84
77
80
80
84
75
86
86
76
82
79
81
81
78
74
78
78
71
67
62
62
81
70
66
66
65
63
67
71
71
61
71
66
66
63
67
72
72
71
71
63
63
54
69
62
62
55
61
58
67
67
58
56
63
63
59
61
58
58
63
76
63
63
63
50
61
62
62
58
56
59
59
67
63
56
56
63
66
73
73
70
78
84
79
79
83
85
89
89
94
94
121
103
114
114
110
105
118
126
121
127
148
142
143
155
158
168
178
189
184
207
203
202
204
222
219
225
225
236
246
247
255
255
274
297
292
303
304
319
331
334
337
354
358
371
368
380
407
398
398
403
407
419
434
447
449
462
471
480
480
492
499
511
511
511
538
541
543
556
560
566
566
577
581
590
603
608
608
620
627
636
639
648
658
662
663
671
670
677
684
681
690
710
710
708
700
711
714
723
727
729
739
738
743
748
747
735
751
752
752
767
762
757
772
769
769
765
772
775
783
781
775
783
784
782
788
779
783
789
782
781
786
785
783
782
783
780
780
778
783
785
779
778
782
775
778
791
778
767
780
778
775
759
772
770
764
767
766
768
770
770
767
761
766
777
765
757
772
765
764
762
762
758
759
759
752
752
756
759
753
756
761
761
751
752
762
757
751
756
751
752
746
743
745
744
746
749
740
743
731
743
737
740
738
738
743
743
742
742
745
735
738
736
731
738
724
733
731
726
720
724
718
720
718
718
726
726
717
711
693
713
708
719
704
703
709
702
688
692
689
689
686
682
689
682
679
685
680
680
679
679
673
661
674
663
652
654
646
639
639
639
626
638
631
635
632
634
630
624
622
622
615
624
617
618
612
609
606
600
599
601
599
598
592
594
590
588
587
593
586
584
588
588
581
587
582
575
581
575
575
570
572
567
570
565
567
574
570
561
574
568
569
568
562
563
563
559
562
561
553
559
554
549
548
558
550
549
554
550
553
554
551
545
551
543
543
544
544
550
542
537
537
557
538
533
542
535
537
538
542
536
546
535
537
539
533
543
537
540
540
539
530
511
532
527
511
530
527
527
533
519
529
529
511
531
528
527
538
511
511
511
511
511
511
511
511
511
511
511
509
511
511
511
511
511
511
511
504
496
511
505
507
500
500
498
504
498
496
496
499
508
497
502
505
498
492
498
484
497
486
490
484
490
479
485
485
480
478
484
472
478
485
480
468
470
474
469
466
461
464
462
463
454
456
455
450
441
446
446
458
450
444
450
454
447
448
447
447
454
439
444
440
440
434
428
429
434
426
420
428
428
423
421
420
414
430
417
411
410
408
407
406
400
393
399
386
356
388
380
380
380
376
376
380
379
370
377
368
371
379
363
387
379
367
360
356
364
357
350
318
348
348
343
327
327
345
342
353
341
342
351
343
333
335
334
327
326
324
324
325
319
319
313
318
318
312
312
316
323
318
305
310
311
305
316
302
302
301
295
295
293
294
287
293
294
299
287
284
284
298
295
292
287
287
287
291
287
281
281
286
282
273
276
281
274
255
277
282
255
274
274
255
255
255
255
255
255
255
254
244
252
251
246
241
247
251
245
247
242
250
247
239
240
240
240
231
255
228
236
241
228
209
222
222
221
226
212
222
221
215
218
217
224
218
216
216
221
222
231
205
214
214
217
214
210
206
207
175
207
205
208
198
209
206
214
206
216
216
206
206
201
194
196
194
198
195
190
187
190
190
185
191
195
178
184
192
183
185
178
178
190
180
183
195
172
176
174
174
161
172
179
167
164
166
166
169
174
168
166
165
159
159
154
145
159
154
145
150
179
146
141
134
147
149
150
166
148
153
143
148
145
140
143
143
124
154
139
131
101
131
123
127
127
138
127
127
127
127
133
127
127
125
123
127
118
115
115
119
118
111
116
114
112
93
103
118
113
98
110
110
113
116
122
114
104
116
112
89
110
100
108
103
99
99
95
105
110
111
101
108
111
116
104
110
108
101
95
95
100
103
93
87
87
96
88
103
103
85
85
94
102
90
88
88
94
83
85
76
76
95
87
79
79
71
74
77
77
76
79
69
69
86
75
70
70
60
71
75
63
63
73
72
76
76
63
59
63
63
65
60
73
73
57
55
63
55
55
56
60
54
54
53
51
60
60
60
57
47
47
52
27
60
61
61
48
44
55
55
44
36
44
44
27
52
50
50
42
44
43
43
41
43
48
46
46
47
17
42
42
50
38
24
24
46
31
31
31
26
31
55
37
37
27
31
33
33
42
45
33
33
31
47
38
38
28
38
30
45
45
27
30
30
30
31
23
26
26
33
38
39
39
33
31
51
48
48
40
50
50
50
47
43
50
50
50
61
51
