1188
1181
1183
1177
1176
1165
1177
1183
1167
1160
1171
1169
1171
1164
1158
1164
1163
1162
1164
1151
1150
1159
1163
1149
1140
1150
1143
1147
1145
1142
1148
1143
1144
1138
1134
1136
1141
1132
1126
1127
1133
1127
1133
1121
1124
1122
1129
1120
1122
1116
1118
1135
1118
1110
1118
1119
1120
1114
1114
1111
1111
1110
1114
1094
1111
1103
1120
1104
1102
1100
1107
1106
1100
1094
1102
1095
1099
1096
1090
1093
1099
1105
1092
1092
1094
1099
1096
1093
1086
1094
1087
1093
1087
1095
1082
1087
1097
1084
1082
1093
1087
1091
1081
1080
1084
1085
1080
1084
1090
1078
1081
1087
1081
1074
1087
1079
1082
1077
1076
1082
1081
1080
1081
1084
1079
1083
1089
1070
1078
1068
1076
1076
1078
1076
1077
1071
1074
1075
1076
1076
1079
1076
1066
1076
1071
1071
1068
1075
1070
1071
1070
1067
1075
1071
1074
1081
1068
1070
1076
1071
1066
1071
1073
1068
1063
1061
1064
1065
1063
1062
1071
1070
1048
1070
1062
1062
1063
1061
1061
1063
1055
1061
1055
1057
1058
1065
1054
1050
1062
1060
1058
1063
1062
1053
1055
1051
1055
1052
1053
1054
1059
1050
1054
1044
1055
1055
1055
1052
1052
1048
1052
1049
1052
1054
1052
1055
1048
1054
1052
1052
1051
1023
1055
1055
1067
1066
1066
1076
1066
1083
1075
1068
1078
1085
1084
1095
1092
1103
1106
1112
1120
1118
1134
1141
1151
1149
1144
1151
1165
1163
1177
1182
1191
1191
1205
1208
1209
1226
1238
1259
1255
1246
1260
1267
1279
1279
1290
1300
1301
1311
1320
1338
1334
1353
1363
1373
1366
1385
1388
1400
1404
1404
1412
1423
1434
1439
1458
1454
1469
1475
1481
1494
1505
1506
1519
1517
1522
1536
1549
1544
1553
1566
1559
1571
1579
1578
1588
1599
1600
1609
1605
1617
1621
1625
1624
1627
1634
1630
1635
1633
1626
1636
1641
1638
1642
1642
1644
1639
1645
1640
1647
1650
1645
1645
1641
1638
1632
1641
1635
1633
1628
1636
1629
1631
1626
1629
1616
1627
1626
1621
1610
1612
1614
1611
1605
1599
1598
1604
1601
1598
1598
1590
1593
1595
1593
1578
1584
1584
1577
1577
1574
1572
1567
1562
1565
1570
1564
1561
1565
1561
1554
1554
1552
1555
1541
1541
1548
1539
1538
1539
1542
1536
1533
1537
1522
1526
1524
1531
1526
1519
1517
1517
1517
1514
1513
1511
1508
1511
1503
1498
1496
1494
1491
1501
1493
1492
1487
1499
1482
1487
1488
1481
1477
1473
1462
1464
1468
1458
1455
1464
1456
1457
1459
1450
1451
1444
1445
1449
1439
1430
1432
1430
1427
1417
1421
1420
1415
1419
1416
1422
1408
1417
1417
1413
1402
1400
1398
1395
1397
1397
1400
1396
1391
1384
1389
1390
1389
1400
1382
1388
1385
1381
1378
1381
1374
1380
1378
1376
1368
1375
1374
1374
1384
1370
1376
1375
1371
1368
1369
1368
1367
1357
1362
1359
1364
1360
1359
1358
1356
1368
1374
1364
1356
1359
1364
1367
1364
1355
1357
1356
1358
1369
1359
1358
1360
1359
1360
1359
1356
1358
1361
1354
1354
1343
1351
1353
1363
1348
1342
1348
1339
1342
1343
1342
1348
1351
1343
1344
1338
1346
1347
1349
1338
1334
1342
1335
1334
1337
1332
1334
1335
1330
1332
1327
1330
1333
1341
1327
1322
1327
1328
1318
1325
1320
1320
1310
1314
1310
1316
1314
1321
1321
1311
1310
1317
1310
1308
1305
1302
1303
1295
1298
1295
1303
1297
1297
1290
1279
1292
1295
1279
1279
1279
1279
1279
1279
1272
1276
1273
1271
1278
1264
1264
1266
1270
1264
1266
1262
1260
1263
1256
1256
1248
1252
1253
1257
1247
1242
1240
1247
1240
1241
1236
1238
1239
1234
1227
1228
1228
1231
1238
1222
1212
1220
1216
1213
1199
1208
1216
1215
1212
1208
1212
1212
1218
1216
1202
1194
1205
1197
1197
1193
1188
1196
1199
1192
1190
1185
1194
1193
1195
1182
1182
1183
1183
1176
1176
1172
1175
1172
1170
1162
1172
1173
1172
1165
1162
1158
1165
1163
1156
1157
1151
1159
1159
1150
1151
1151
1151
1161
1149
1144
1148
1151
1147
1146
1144
1142
1143
1145
1136
1137
1134
1141
1147
1132
1116
1132
1141
1130
1129
1129
1132
1127
1131
1128
1124
1122
1127
1133
1116
1118
1116
1122
1118
1103
1114
1118
1117
1123
1116
1117
1111
1119
1124
1113
1106
1115
1110
1109
1108
1108
1110
1111
1112
1108
1110
1108
1115
1120
1101
1102
1097
1102
1103
1109
1102
1106
1107
1104
1100
1096
1100
1103
1098
1098
1102
1103
1104
1098
1093
1096
1111
1099
1092
1093
1092
1095
1103
1093
1088
1094
1099
1099
1091
1090
1092
1095
1092
1090
1087
1086
1091
1099
1090
1082
1084
1093
1087
1084
1086
1088
1093
1087
1080
1071
1076
1085
1091
1080
1076
1079
1074
1085
1077
1078
1062
1083
1079
1071
1076
1072
1077
1084
1070
1062
1071
1068
1075
1069
1072
1076
1074
1068
1057
1070
1062
1071
1078
1063
1060
1067
1062
1066
1055
1060
1060
1066
1064
1054
1060
1057
1062
1055
1052
1054
1059
1055
1055
1052
1053
1047
1054
1048
1048
1048
1045
1061
1048
1044
1046
1054
1047
1049
1042
1044
1043
1043
1042
1023
1039
1048
1055
1044
1023
1048
1053
1052
1048
1051
1058
1053
1059
1058
1055
1063
1071
1069
1076
1074
1080
1094
1102
1097
1106
1109
1111
1123
1127
1140
1137
1146
1161
1151
1154
1179
1183
1193
1196
1202
1196
1213
1227
1231
1250
1248
1258
1269
1267
1278
1279
1304
1305
1309
1316
1328
1345
1346
1352
1370
1376
1377
1389
1392
1406
1410
1418
1422
1437
1452
1461
1460
1474
1479
1485
1495
1511
1508
1514
1524
1528
1535
1538
1553
1556
1565
1560
1566
1581
1580
1588
1598
1594
1594
1608
1604
1611
1613
1619
1620
1623
1615
1616
1625
1623
1622
1629
1621
1622
1630
1622
1626
1629
1627
1623
1623
1618
1617
1615
1614
1612
1617
1612
1606
1609
1607
1602
1605
1607
1597
1604
1594
1593
1589
1591
1586
1589
1582
1582
1578
1575
1571
1573
1577
1572
1552
1562
1565
1561
1558
1556
1557
1542
1550
1544
1546
1538
1541
1544
1536
1537
1530
1528
1538
1526
1535
1523
1514
1516
1522
1514
1514
1509
1510
1505
1509
1506
1502
1510
1503
1503
1503
1490
1494
1499
1490
1485
1486
1484
1479
1481
1480
1469
1472
1473
1483
1472
1466
1466
1471
1461
1452
1453
1454
1447
1449
1442
1447
1438
1444
1447
1435
1428
1435
1427
1429
1423
1418
1420
1415
1410
1413
1414
1404
1409
1407
1405
1388
1405
1395
1397
1391
1390
1392
1387
1384
1387
1390
1376
1381
1383
1368
1372
1375
1371
1371
1369
1368
1365
1369
1368
1365
1367
1358
1359
1363
1354
1356
1359
1354
1357
1352
1356
1351
1358
1352
1353
1358
1359
1359
1357
1346
1348
1352
1350
1343
1342
1340
1347
1351
1350
1349
1348
1355
1355
1349
1346
1348
1351
1339
1343
1340
1342
1343
1347
1342
1351
1338
1350
1353
1351
1340
1343
1347
1345
1343
1343
1342
1335
1338
1341
1342
1334
1341
1343
1339
1332
1337
1336
1343
1333
1337
1334
1333
1336
1337
1335
1328
1332
1335
1322
1326
1324
1319
1327
1324
1324
1319
1327
1320
1323
1319
1312
1322
1319
1308
1308
1310
1308
1309
1305
1308
1303
1301
1306
1305
1310
1305
1304
1301
1279
1292
1292
1279
1279
1279
1279
1279
1279
1279
1279
1274
1279
1279
1279
1270
1272
1269
1274
1268
1273
1268
1255
1265
1264
1270
1255
1265
1267
1261
1248
1249
1252
1254
1244
1247
1246
1245
1247
1238
1236
1244
1236
1249
1232
1238
1240
1235
1226
1231
1228
1218
1217
1218
1220
1217
1218
1215
1225
1204
1214
1210
1210
1207
1209
1206
1207
1204
1202
1196
1196
1191
1196
1188
1188
1196
1195
1192
1186
1199
1190
1199
1181
1184
1178
1176
1178
1183
1175
1170
1178
1177
1174
1173
1169
1170
1172
1170
1163
1167
1167
1167
1171
1161
1162
1160
1159
1151
1151
1151
1156
1151
1151
1154
1151
1154
1151
1151
1146
1148
1156
1146
1146
1148
1139
1148
1149
1143
1143
1142
1143
1145
1151
1144
1134
1151
1147
1138
1135
1134
1140
1134
1136
1131
1132
1134
1139
1145
1130
1134
1137
1133
1127
1132
1128
1135
1126
1130
1126
1128
1132
1131
1122
1120
1124
1127
1127
1126
1124
1127
1127
1122
1122
1116
1122
1124
1131
1114
1110
1114
1122
1120
1118
1116
1124
1119
1110
1120
1110
1117
1121
1125
1109
1108
1108
1115
1104
1103
1108
1110
1117
1108
1112
1108
1110
1116
1123
1103
1100
1103
1104
1103
1103
1101
1102
1095
1103
1101
1100
1106
1119
1119
1102
1096
1106
1102
1096
1093
1094
1097
1095
1094
1082
1092
1092
1095
1103
1084
1079
1097
1093
1087
1087
1087
1093
1087
1080
1081
1084
1077
1092
1084
1078
1084
1086
1084
1078
1085
1084
1085
1083
1080
1076
1079
1079
1091
1074
1070
1076
1083
1081
1078
1078
1084
1079
1085
1083
1079
1084
1098
1100
1087
1088
1090
1103
1103
1103
1112
1111
1121
1121
1130
1132
1132
1145
1151
1145
1144
1151
1164
1169
1175
1182
1192
1203
1205
1214
1223
1230
1241
1255
1249
1252
1275
1275
1279
1293
1295
1301
1309
1322
1329
1336
1335
1357
1377
1368
1382
1395
1399
1400
1409
1412
1431
1439
1448
1447
1455
1463
1472
1484
1494
1496
1505
1510
1514
1517
1526
1541
1545
1538
1542
1549
1550
1567
1558
1562
1567
1575
1574
1576
1576
1588
1589
1583
1584
1581
1588
1593
1601
1590
1590
1592
1597
1594
1589
1592
1596
1599
1599
1592
1588
1586
1587
1593
1575
1574
1572
1578
1576
1567
1569
1574
1573
1573
1562
1564
1558
1561
1571
1552
1558
1555
1547
1547
1541
1544
1536
1547
1538
1536
1533
1527
1533
1537
1526
1519
1519
1520
1518
1508
1508
1504
1505
1504
1507
1506
1502
1496
1497
1482
1498
1489
1490
1482
1484
1478
1479
1476
1474
1473
1464
1472
1479
1465
1458
1466
1461
1462
1459
1463
1464
1455
1449
1450
1448
1444
1441
1444
1445
1434
1439
1436
1432
1429
1431
1421
1429
1419
1416
1413
1408
1411
1421
1399
1398
1398
1399
1397
1391
1390
1390
1383
1387
1377
1382
1373
1379
1383
1367
1362
1367
1360
1359
1356
1348
1356
1351
1346
1348
1358
1346
1349
1349
1336
1332
1337
1334
1335
1327
1328
1328
1327
1322
1321
1330
1318
1327
1335
1314
1320
1319
1315
1316
1315
1308
1317
1309
1306
1311
1313
1314
1317
1304
1300
1314
1307
1311
1304
1308
1300
1303
1300
1304
1305
1304
1301
1315
1303
1302
1306
1306
1306
1311
1311
1304
1319
1305
1304
1305
1303
1300
1307
1301
1298
1304
1298
1306
1308
1305
1303
1303
1298
1303
1295
1300
1296
1305
1293
1294
1295
1297
1295
1301
1304
1279
1303
1302
1299
1295
1294
1290
1301
1279
1294
1279
1292
1279
1279
1279
1279
1279
1279
1279
1279
1279
1279
1279
1266
1278
1278
1274
1274
1273
1273
1268
1269
1272
1270
1278
1265
1279
1273
1260
1262
1263
1254
1263
1256
1254
1255
1255
1250
1244
1258
1247
1257
1245
1238
1244
1245
1239
1231
1231
1236
1231
1231
1232
1224
1222
1229
1235
1225
1218
1216
1223
1221
1212
1208
1214
1207
1211
1204
1206
1205
1205
1205
1201
1190
1206
1193
1199
1189
1191
1190
1189
1182
1183
1187
1175
1183
1181
1177
1172
1181
1169
1176
1165
1166
1172
1167
1162
1167
1167
1156
1165
1162
1144
1144
1151
1148
1151
1145
1146
1143
1149
1144
1149
1151
1140
1149
1146
1136
1132
1139
1137
1137
1124
1130
1127
1131
1128
1128
1134
1133
1133
1130
1118
1124
1123
1117
1116
1116
1116
1117
1113
1112
1119
1107
1113
1119
1112
1106
1110
1117
1113
1103
1105
1108
1095
1107
1098
1110
1095
1105
1107
1101
1094
1096
1095
1101
1095
1084
1102
1095
1096
1096
1100
1084
1094
1099
1085
1090
1090
1090
1091
1087
1087
1092
1090
1090
1085
1087
1081
1087
1090
1078
1084
1084
1080
1085
1081
1084
1079
1085
1082
1087
1087
1082
1071
1082
1070
1074
1078
1079
1075
1071
1076
1077
1079
1074
1081
1086
1081
1085
1081
1072
1074
1074
1072
1071
1073
1076
1071
1061
1074
1073
1069
1079
1079
1076
1064
1072
1071
1074
1065
1079
1068
1063
1071
1064
1074
1065
1070
1071
1061
1062
1066
1066
1070
1066
1062
1063
1063
1065
1055
1061
1057
1058
1071
1060
1064
1066
1060
1054
1060
1055
1055
1053
1051
1049
1050
1052
1053
1061
1044
1054
1055
1051
1050
1052
1050
1051
1048
1048
1049
1044
1045
1023
1042
1023
1023
1023
1023
1023
1023
1044
1023
1023
1023
1023
1023
1040
1048
1023
1023
1023
1023
1023
1023
1023
1023
1043
1023
1023
1023
1023
1023
1045
1023
1022
1023
1023
1023
1023
1023
1023
1039
1023
1023
1046
1052
1055
1066
1056
1068
1068
1069
1074
1076
1078
1084
1087
1092
1100
1102
1113
1118
1133
1122
1128
1149
1151
1156
1167
1167
1176
1187
1192
1197
1206
1218
1220
1236
1232
1248
1263
1267
1275
1279
1279
1309
1309
1322
1325
1333
1340
1353
1364
1368
1376
1391
1395
1406
1417
1436
1444
1441
1450
1458
1468
1472
1493
1487
1490
1498
1506
1514
1519
1532
1542
1543
1543
1547
1551
1566
1567
1580
1572
1571
1580
1583
1578
1589
1584
1590
1597
1592
1586
1596
1600
1603
1611
1593
1598
1598
1600
1598
1593
1596
1596
1599
1593
1592
1596
1600
1601
1601
1590
1590
1593
1590
1581
1581
1578
1580
1581
1576
1567
1567
1570
1567
1573
1558
1560
1561
1559
1556
1557
1550
1557
1553
1546
1544
1545
1537
1536
1536
1530
1529
1533
1531
1527
1519
1524
1525
1531
1520
1514
1516
1516
1523
1508
1506
1508
1512
1508
1502
1504
1508
1505
1503
1504
1496
1497
1501
1505
1492
1486
1486
1491
1480
1487
1482
1484
1487
1485
1480
1477
1476
1481
1487
1471
1466
1468
1466
1460
1455
1456
1454
1463
1459
1452
1447
1447
1450
1455
1439
1438
1437
1434
1428
1429
1420
1424
1428
1416
1408
1413
1408
1415
1419
1405
1397
1407
1398
1394
1389
1390
1383
1385
1378
1378
1377
1372
1377
1362
1366
1372
1371
1366
1362
1359
1364
1359
1365
1352
1350
1348
1342
1357
1341
1340
1346
1347
1342
1341
1332
1340
1341
1339
1336
1335
1333
1329
1339
1327
1322
1328
1331
1330
1325
1322
1328
1327
1323
1320
1320
1319
1321
1325
1316
1310
1311
1317
1315
1309
1311
1310
1311
1304
1308
1313
1308
1315
1321
1310
1306
1311
1306
1311
1308
1306
1308
1307
1304
1306
1308
1303
1311
1319
1302
1304
1307
1307
1306
1301
1298
1302
1294
1296
1299
1306
1298
1295
1304
1279
1298
1296
1298
1292
1295
1279
1295
1289
1290
1293
1279
1279
1291
1279
1279
1279
1279
1279
1279
1279
1276
1279
1277
1274
1277
1276
1271
1275
1273
1266
1270
1267
1266
1269
1262
1262
1263
1260
1256
1257
1250
1257
1260
1248
1240
1242
1242
1247
1237
1239
1238
1237
1243
1231
1239
1230
1243
1241
1230
1220
1230
1223
1224
1220
1214
1220
1213
1216
1216
1222
1212
1217
1219
1208
1204
1209
1201
1203
1197
1202
1196
1205
1192
1189
1200
1189
1195
1201
1182
1188
1183
1183
1186
1177
1180
1181
1173
1176
1175
1167
1174
1175
1167
1164
1170
1166
1167
1165
1165
1158
1159
1157
1151
1151
1151
1151
1149
1148
1140
1151
1147
1151
1149
1150
1150
1149
1140
1138
1144
1140
1132
1143
1134
1128
1138
1135
1134
1133
1135
1134
1127
1129
1132
1126
1125
1126
1127
1122
1116
1112
1121
1119
1124
1121
1121
1119
1115
1118
1118
1120
1116
1109
1111
1106
1108
1111
1096
1113
1107
1108
1104
1112
1109
1108
1109
1108
1114
1104
1108
1102
1104
1096
1101
1105
1095
1102
1096
1099
1107
1097
1112
1103
1094
1098
1101
1101
1101
1092
1098
1095
1096
1091
1091
1098
1095
1103
1097
1088
1088
1097
1094
1087
1092
1094
1087
1091
1090
1087
1087
1095
1099
1093
1084
1096
1093
1093
1085
1089
1087
1087
1091
1094
1092
1082
1092
1095
1085
1076
1085
1084
1084
1081
1084
1084
1079
1080
1085
1086
1078
1085
1083
1083
1076
1082
1074
1080
1071
1076
1086
1077
1074
1079
1082
1078
1081
1083
1066
1068
1074
1072
1071
1065
1067
1063
1055
1066
1068
1066
1063
1071
1071
1060
1062
1071
1061
1064
1058
1060
1053
1063
1054
1055
1047
1062
1065
1055
1052
1055
1060
1055
1049
1048
1047
1047
1049
1048
1043
1023
1047
1049
1049
1023
1023
1047
1048
1023
1023
1044
1023
1043
1023
1042
1023
1023
1043
1023
1023
1023
1023
1023
1023
1023
1023
1023
1043
1043
1047
1044
1050
1059
1053
1044
1055
1063
1065
1065
1069
1076
1087
1086
1092
1102
1098
1106
1114
1112
1119
1127
1131
1146
1141
1149
1159
1177
1178
1192
1198
1194
1209
1217
1218
1231
1239
1246
1255
1257
1278
1279
1291
1298
1307
1324
1337
1343
1343
1348
1358
1368
1372
1389
1399
1406
1407
1419
1424
1439
1442
1451
1463
1473
1470
1478
1486
1503
1501
1512
1508
1511
1519
1522
1536
1527
1545
1549
1547
1542
1542
1554
1563
1557
1563
1567
1565
1567
1562
1572
1566
1572
1579
1568
1574
1573
1575
1571
1576
1570
1574
1571
1576
1567
1567
1570
1566
1575
1554
1562
1563
1559
1554
1557
1554
1557
1549
1547
1545
1545
1543
1537
1532
1530
1530
1531
1526
1522
1525
1518
1519
1513
1512
1509
1511
1511
1519
1504
1494
1502
1503
1495
1496
1486
1492
1492
1484
1480
1482
1479
1481
1491
1472
1474
1470
1479
1466
1469
1463
1468
1469
1460
1458
1457
1458
1459
1465
1452
1450
1458
1452
1450
1453
1447
1444
1447
1439
1436
1437
1436
1439
1445
1428
1428
1432
1438
1422
1423
1418
1420
1411
1410
1408
1404
1408
1409
1413
1392
1396
1395
1392
1379
1389
1386
1391
1380
1382
1377
1377
1372
1375
1358
1362
1356
1362
1360
1354
1353
1350
1351
1346
1347
1340
1343
1340
1343
1335
1330
1330
1333
1330
1326
1326
1324
1325
1319
1320
1316
1319
1321
1327
1314
1310
1312
1311
1302
1304
1302
1308
1309
1302
1306
1304
1306
1311
1316
1298
1298
1304
1303
1306
1295
1295
1303
1301
1295
1292
1294
1298
1297
1309
1294
1298
1307
1302
1294
1295
1296
1300
1295
1296
1279
1295
1294
1297
1301
1279
1292
1299
1293
1295
1295
1292
1295
1295
1291
1290
1295
1279
1293
1293
1279
1290
1295
1279
1288
1279
1279
1293
1291
1279
1279
1279
1279
1293
1279
1278
1276
1279
1279
1278
1276
1278
1279
1277
1274
1274
1273
1277
1279
1270
1268
1260
1269
1266
1261
1258
1262
1263
1261
1258
1262
1254
1260
1275
1250
1246
1252
1250
1247
1229
1242
1244
1245
1243
1239
1236
1230
1237
1249
1234
1230
1235
1229
1231
1228
1216
1222
1221
1218
1214
1214
1214
1225
1225
1208
1208
1209
1216
1204
1199
1200
1205
1197
1194
1192
1196
1188
1195
1183
1182
1190
1195
1191
1183
1183
1183
1183
1183
1178
1175
1173
1174
1181
1170
1164
1170
1175
1168
1165
1162
1164
1167
1166
1162
1158
1159
1164
1165
1151
1150
1151
1151
1151
1148
1146
1148
1149
1151
1144
1141
1140
1149
1151
1138
1136
1136
1133
1135
1128
1128
1132
1127
1135
1126
1126
1124
1130
1137
1124
1122
1123
1126
1123
1117
1119
1114
1115
1114
1110
1116
1110
1113
1124
1110
1110
1116
1111
1111
1103
1103
1103
1108
1102
1101
1100
1095
1103
1095
1092
1100
1105
1099
1099
1100
1102
1095
1112
1096
1092
1090
1074
1099
1087
1084
1087
1094
1090
1093
1087
1088
1087
1093
1088
1090
1086
1093
1103
1084
1078
1078
1085
1079
1085
1082
1087
1079
1085
1086
1082
1084
1087
1089
1076
1076
1076
1077
1081
1076
1073
1079
1079
1079
1075
1078
1078
1082
1090
1075
1072
1081
1076
1077
1069
1068
1076
1071
1072
1070
1078
1069
1077
1080
1071
1068
1071
1072
1071
1068
1064
1068
1067
1064
1062
1062
1062
1067
1073
1060
1068
1063
1063
1062
1071
1061
1063
1046
1056
1060
1052
1056
1062
1054
1050
1060
1055
1057
1054
1055
1055
1053
1051
1050
1055
1048
1050
1055
1042
1043
1050
1047
1047
1048
1053
1048
1047
1042
1042
1046
1041
1023
1049
1023
1023
1023
1023
1023
1023
1023
1023
1043
1023
1023
1023
1040
1023
1042
1023
1023
1023
1023
1050
1023
1023
1023
1045
1048
1049
1039
1055
1052
1061
1054
1066
1066
1078
1068
1076
1079
1084
1087
1090
1101
1101
1105
1116
1115
1124
1134
1140
1145
1150
1157
1166
1167
1183
1186
1193
1204
1204
1243
1229
1230
1238
1257
1259
1269
1278
1292
1279
1305
1306
1311
1330
1341
1355
1355
1358
1366
1381
1383
1391
1402
1412
1421
1427
1426
1433
1447
1457
1467
1469
1466
1474
1483
1495
1497
1500
1508
1509
1519
1515
1536
1524
1533
1541
1531
1534
1547
1546
1551
1548
1550
1552
1551
1554
1560
1566
1556
1560
1563
1560
1552
1557
1552
1549
1551
1556
1556
1555
1546
1555
1554
1548
1551
1555
1542
1540
1545
1542
1543
1533
1536
1525
1529
1522
1523
1530
1518
1528
1519
1510
1513
1517
1515
1514
1502
1508
1501
1499
1490
1493
1494
1493
1493
1489
1478
1484
1486
1479
1477
1478
1476
1476
1473
1466
1472
1462
1472
1469
1464
1456
1460
1460
1457
1453
1450
1454
1453
1453
1450
1447
1444
1447
1451
1449
1434
1438
1430
1437
1433
1428
1436
1429
1430
1429
1431
1420
1423
1427
1421
1412
1412
1407
1410
1401
1397
1404
1403
1395
1401
1404
1394
1397
1399
1374
1380
1378
1380
1375
1365
1365
1367
1369
1362
1361
1366
1356
1359
1355
1342
1346
1343
1343
1343
1333
1334
1329
1329
1322
1325
1328
1324
1331
1325
1314
1318
1316
1314
1308
1311
1308
1303
1303
1304
1301
1296
1295
1299
1295
1274
1290
1292
1279
1279
1297
1279
1279
1279
1279
1279
1279
1279
1279
1279
1274
1276
1279
1279
1276
1277
1278
1277
1279
1276
1276
1278
1274
1279
1272
1272
1277
1275
1266
1277
1274
1276
1270
1274
1271
1271
1276
1272
1279
1268
1274
1275
1270
1264
1257
1266
1271
1268
1272
1266
1269
1268
1263
1268
1268
1270
1269
1268
1260
1263
1260
1263
1259
1264
1256
1263
1261
1273
1257
1254
1260
1261
1254
1253
1250
1254
1252
1246
1252
1247
1249
1251
1253
1241
1240
1245
1247
1239
1245
1238
1238
1239
1230
1232
1229
1231
1233
1239
1222
1220
1230
1225
1222
1221
1217
1222
1221
1218
1213
1210
1207
1214
1219
1206
1200
1207
1207
1202
1199
1198
1202
1191
1194
1194
1189
1191
1191
1199
1166
1180
1183
1186
1176
1175
1172
1181
1174
1178
1176
1176
1173
1176
1164
1162
1168
1166
1151
1166
1157
1156
1151
1151
1151
1151
1151
1150
1161
1146
1142
1142
1147
1146
1141
1138
1135
1139
1130
1138
1132
1133
1135
1141
1129
1120
1127
1131
1122
1124
1116
1121
1123
1120
1098
1116
1116
1114
1123
1108
1106
1108
1111
1108
1103
1108
1108
1107
1101
1100
1103
1111
1102
1107
1092
1090
1098
1097
1092
1087
1092
1100
1091
1090
1087
1086
1088
1089
1082
1080
1084
1087
1087
1080
1079
1079
1079
1082
1080
1078
1076
1063
1079
1072
1064
1071
1075
1072
1070
1068
1068
1075
1074
1066
1069
1070
1073
1080
1068
1060
1063
1069
1060
1063
1064
1063
1063
1065
1058
1062
1060
1069
1071
1058
1054
1062
1066
1055
1053
1055
1055
1063
1061
1054
1055
1054
1062
1071
1062
1055
1058
1072
1055
1053
1055
1055
1055
1055
1049
1050
1049
1059
1067
1052
1050
1059
1055
1052
1052
1052
1052
1063
1050
1051
1050
1045
1053
1061
1044
1046
1054
1049
1047
1048
1048
1047
1049
1048
1043
1046
1023
1045
1023
1023
1023
1045
1042
1044
1023
1023
1047
1049
1042
1023
1039
1041
1050
1023
1023
1023
1023
1042
1023
1023
1023
1023
1023
1023
1023
1023
1023
1043
1023
1023
1023
1023
1023
1023
1022
1023
1023
1023
1023
1023
1020
1023
1023
1022
1023
1020
1022
1023
1021
1019
1020
1023
1021
1014
1014
1014
1015
1023
1016
1012
1020
1018
1017
1013
1013
1014
1015
1010
1009
1004
999
1008
1011
1007
1002
1007
1005
1006
1007
1007
1007
999
1005
998
1010
1004
998
1013
1002
996
1004
1001
1002
988
1004
1006
999
1002
1003
1005
1003
1008
1008
1015
1008
1012
1017
1023
1022
1023
1023
1045
1046
1048
1059
1054
1063
1079
1079
1078
1086
1087
1098
1102
1115
1124
1133
1134
1138
1151
1156
1175
1183
1189
1188
1196
1205
1216
1231
1239
1244
1255
1262
1264
1277
1298
1305
1316
1321
1318
1344
1354
1363
1373
1380
1382
1396
1397
1417
1423
1431
1433
1453
1452
1458
1474
1478
1482
1496
1497
1508
1509
1515
1525
1529
1522
1536
1543
1540
1554
1549
1556
1556
1565
1567
1572
1569
1576
1575
1573
1580
1570
1581
1574
1578
1574
1581
1570
1577
1580
1575
1575
1570
1577
1573
1572
1569
1567
1562
1562
1560
1563
1555
1563
1556
1557
1553
1558
1557
1553
1544
1549
1542
1536
1542
1536
1528
1529
1533
1524
1527
1521
1522
1525
1511
1517
1519
1508
1502
1512
1506
1496
1505
1501
1496
1501
1492
1493
1492
1490
1485
1491
1484
1482
1485
1482
1472
1481
1477
1476
1477
1472
1471
1461
1463
1466
1473
1461
1472
1463
1462
1464
1469
1463
1456
1453
1450
1451
1449
1447
1445
1449
1438
1444
1442
1442
1439
1439
1437
1437
1430
1432
1425
1429
1422
1423
1408
1408
1410
1404
1411
1402
1405
1404
1399
1394
1394
1396
1389
1386
1387
1380
1374
1374
1372
1372
1368
1369
1364
1361
1362
1354
1353
1359
1352
1357
1352
1340
1344
1340
1336
1340
1339
1336
1333
1331
1331
1329
1326
1322
1335
1319
1314
1316
1315
1308
1316
1316
1308
1311
1304
1304
1304
1308
1304
1317
1300
1304
1297
1303
1298
1300
1304
1296
1292
1290
1292
1292
1294
1293
1301
1279
1290
1279
1292
1294
1293
1293
1295
1279
1278
1279
1292
1287
1289
1279
1279
1279
1279
1279
1279
1295
1279
1293
1279
1279
1279
1279
1279
1279
1279
1278
1279
1279
1279
1279
1279
1279
1287
1279
1279
1279
1279
1279
1293
1276
1268
1279
1275
1275
1276
1273
1276
1271
1272
1274
1272
1271
1270
1279
1270
1264
1268
1266
1265
1261
1260
1262
1261
1258
1265
1268
1255
1259
1259
1260
1256
1253
1253
1251
1239
1247
1244
1245
1242
1241
1244
1233
1244
1245
1230
1231
1236
1235
1231
1231
1223
1223
1227
1224
1227
1228
1216
1225
1217
1208
1214
1214
1215
1211
1212
1216
1207
1209
1202
1199
1206
1205
1201
1199
1190
1180
1188
1189
1189
1192
1188
1189
1188
1186
1183
1175
1177
1183
1177
1168
1172
1172
1171
1167
1163
1167
1159
1171
1168
1168
1156
1164
1165
1157
1150
1156
1151
1151
1149
1151
1149
1143
1151
1149
1150
1143
1147
1143
1147
1132
1135
1136
1139
1130
1135
1132
1131
1136
1133
1142
1124
1133
1131
1122
1122
1122
1129
1125
1117
1122
1111
1117
1112
1117
1115
1106
1112
1114
1104
1108
1106
1109
1113
1117
1103
1103
1103
1099
1102
1108
1095
1105
1101
1096
1093
1099
1099
1100
1101
1100
1095
1097
1096
1105
1087
1080
1093
1093
1084
1087
1087
1091
1087
1097
1092
1091
1087
1086
1079
1082
1081
1087
1083
1074
1082
1079
1083
1080
1086
1087
1079
1085
1085
1086
1077
1082
1083
1079
1074
1076
1079
1079
1075
1077
1074
1079
1075
1080
1084
1069
1082
1081
1072
1076
1076
1075
1075
1068
1081
1063
1077
1067
1071
1078
1068
1071
1071
1066
1076
1074
1072
1071
1071
1068
1063
1069
1064
1068
1071
1061
1075
1067
1060
1068
1065
1061
1066
1059
1068
1063
1067
1064
1065
1051
1060
1063
1061
1053
1062
1059
1060
1055
1055
1053
1055
1063
1054
1044
1045
1046
1062
1051
1023
1048
1047
1047
1052
1045
1044
1047
1044
1043
1062
1023
1023
1045
1023
1023
1023
1023
1023
1023
1023
1023
1023
1023
1023
1023
1023
1023
1023
1022
1023
1020
1009
1023
1023
1020
1015
1018
1018
1021
1023
1015
1022
1023
1020
1023
1022
1023
1023
1023
1023
1023
1023
1023
1023
1023
1023
1047
1049
1048
1054
1055
1060
1067
1076
1071
1075
1076
1082
1089
1099
1105
1123
1112
1114
1126
1139
1142
1159
1156
1164
1167
1177
1178
1191
1191
1211
1226
1220
1222
1231
1250
1256
1261
1268
1276
1287
1295
1302
1312
1318
1332
1347
1340
1346
1369
1372
1376
1381
1394
1402
1407
1418
1434
1436
1434
1451
1457
1447
1460
1472
1475
1470
1477
1481
1495
1497
1499
1502
1504
1508
1515
1510
1510
1516
1523
1523
1519
1525
1528
1527
1531
1530
1525
1529
1527
1543
1532
1526
1530
1537
1528
1522
1524
1524
1527
1523
1514
1517
1517
1519
1528
1508
1510
1514
1519
1514
1509
1504
1502
1508
1505
1498
1500
1492
1491
1501
1492
1482
1486
1485
1485
1481
1478
1478
1479
1475
1465
1469
1463
1468
1472
1458
1456
1453
1459
1454
1453
1452
1452
1447
1448
1442
1445
1442
1443
1447
1436
1430
1435
1435
1435
1433
1424
1430
1431
1426
1423
1419
1415
1425
1414
1410
1412
1417
1407
1411
1405
1406
1405
1405
1402
1398
1401
1397
1405
1389
1390
1390
1387
1384
1385
1377
1382
1373
1371
1370
1365
1374
1369
1379
1359
1354
1353
1359
1357
1343
1346
1342
1341
1343
1338
1332
1330
1337
1339
1322
1322
1324
1319
1322
1317
1310
1309
1309
1311
1302
1310
1297
1303
1311
1295
1279
1279
1296
1291
1279
1288
1279
1279
1279
1279
1279
1276
1279
1279
1274
1276
1279
1264
1275
1273
1270
1272
1267
1272
1268
1276
1268
1272
1279
1258
1268
1261
1263
1255
1263
1262
1261
1262
1264
1263
1260
1260
1269
1253
1254
1258
1258
1255
1252
1255
1252
1255
1252
1254
1255
1255
1254
1259
1262
1246
1254
1250
1251
1247
1247
1245
1253
1243
1246
1251
1248
1245
1246
1245
1240
1246
1246
1241
1244
1244
1235
1239
1234
1237
1233
1234
1233
1241
1231
1226
1231
1235
1226
1231
1231
1239
1229
1222
1225
1220
1223
1216
1235
1214
1218
1212
1218
1210
1215
1214
1212
1207
1208
1207
1205
1202
1201
1203
1190
1198
1189
1191
1191
1196
1191
1191
1187
1182
1183
1183
1183
1182
1173
1164
1174
1167
1171
1162
1170
1166
1165
1165
1162
1166
1161
1160
1164
1151
1150
1156
1150
1151
1151
1148
1144
1143
1140
1138
1145
1142
1140
1145
1134
1130
1138
1134
1132
1129
1131
1126
1127
1120
1128
1119
1120
1120
1127
1119
1108
1116
1115
1110
1112
1109
1108
1109
1104
1096
1100
1102
1097
1115
1095
1098
1096
1095
1095
1093
1102
1090
1086
1083
1080
1085
1082
1080
1091
1076
1082
1076
1079
1078
1077
1080
1077
1072
1067
1068
1071
1068
1068
1066
1062
1070
1062
1063
1061
1065
1062
1063
1055
1058
1058
1062
1054
1069
1054
1049
1054
1049
1052
1052
1023
1046
1053
1045
1040
1046
1044
1044
1055
1045
1023
1048
1042
1020
1023
1023
1023
1023
1023
1023
1023
1023
1023
1047
1023
1023
1023
1023
1023
1021
1017
1023
1023
1020
1023
1023
1015
1023
1023
1023
1023
1019
1022
1023
1016
1016
1017
1019
1016
1017
1022
1009
1016
1017
1010
1010
1010
1018
1023
1013
1014
1015
1015
1010
1015
1012
1003
1012
1002
996
1010
1007
1002
998
1004
1007
1006
1007
1000
1004
1010
997
998
1003
1003
994
996
995
992
997
996
1001
996
998
999
994
1005
998
996
1007
999
994
984
990
990
989
999
991
989
992
983
987
986
988
994
992
993
993
998
987
984
990
982
986
970
984
982
980
983
980
978
980
991
980
985
987
980
974
980
980
978
973
980
975
975
974
967
969
970
967
974
970
973
983
974
965
968
974
972
958
967
967
962
968
959
958
962
952
966
964
958
963
961
956
956
965
958
955
959
951
960
959
957
957
954
953
956
949
948
961
951
942
945
952
948
946
948
950
950
949
950
946
948
946
939
939
940
960
943
940
938
942
942
938
940
936
942
943
945
944
947
942
940
946
947
940
936
936
942
941
943
945
948
945
949
951
950
952
956
967
961
964
975
975
969
978
983
985
986
987
987
997
998
999
1004
1008
1021
1023
1023
1048
1042
1023
1052
1068
1068
1071
1076
1089
1093
1101
1105
1110
1124
1132
1149
1140
1146
1173
1173
1178
1180
1189
1204
1206
1211
1218
1225
1238
1245
1263
1258
1270
1279
1279
1293
1295
1306
1327
1327
1331
1336
1343
1351
1361
1368
1370
1380
1391
1394
1398
1405
1414
1429
1428
1432
1434
1439
1444
1455
1452
1450
1454
1463
1464
1463
1470
1476
1479
1474
1482
1479
1479
1491
1497
1484
1482
1484
1489
1480
1477
1480
1484
1487
1481
1482
1481
1479
1493
1495
1476
1478
1476
1474
1472
1471
1465
1468
1469
1467
1458
1457
1463
1465
1472
1457
1454
1459
1456
1446
1445
1444
1452
1445
1435
1432
1433
1432
1437
1443
1432
1436
1439
1435
1428
1429
1426
1431
1427
1419
1417
1420
1415
1420
1409
1412
1412
1421
1414
1412
1409
1414
1423
1413
1408
1405
1405
1396
1413
1397
1394
1396
1403
1397
1394
1392
1392
1393
1395
1394
1385
1388
1387
1400
1377
1374
1374
1387
1367
1372
1366
1368
1373
1371
1368
1364
1358
1365
1368
1352
1346
1354
1350
1342
1341
1336
1340
1335
1341
1328
1330
1326
1333
1337
1321
1316
1317
1314
1308
1305
1304
1304
1303
1298
1292
1295
1292
1297
1305
1279
1290
1292
1279
1279
1279
1274
1279
1279
1267
1271
1263
1265
1273
1263
1258
1260
1269
1254
1265
1257
1262
1255
1259
1250
1244
1252
1246
1256
1245
1238
1242
1247
1248
1251
1242
1244
1250
1245
1240
1239
1241
1243
1247
1234
1232
1236
1239
1232
1231
1232
1236
1237
1235
1232
1220
1234
1237
1241
1228
1216
1226
1230
1229
1225
1226
1226
1223
1229
1228
1220
1223
1229
1234
1223
1220
1231
1221
1229
1215
1216
1222
1213
1214
1217
1217
1216
1225
1228
1205
1220
1207
1219
1217
1213
1209
1214
1211
1208
1204
1215
1207
1214
1206
1204
1204
1209
1206
1207
1199
1200
1197
1202
1200
1190
1200
1186
1201
1190
1183
1190
1193
1190
1195
1183
1183
1183
1187
1184
1176
1183
1179
1187
1167
1168
1170
1175
1173
1167
1166
1166
1167
1167
1162
1158
1156
1157
1176
1151
1146
1148
1150
1158
1148
1144
1144
1143
1149
1146
1148
1136
1141
1145
1140
1128
1134
1131
1129
1125
1122
1124
1123
1122
1118
1127
1120
1121
1129
1119
1111
1117
1119
1114
1103
1108
1108
1108
1104
1103
1106
1100
1106
1109
1094
1092
1102
1097
1098
1087
1090
1087
1091
1086
1085
1094
1078
1095
1084
1074
1070
1087
1080
1079
1076
1086
1075
1077
1072
1067
1079
1078
1080
1073
1062
1054
1069
1066
1068
1065
1066
1062
1060
1058
1060
1055
1059
1065
1023
1048
1054
1055
1055
1053
1051
1054
1053
1055
1049
1055
1042
1049
1055
1043
1023
1052
1046
1043
1023
1044
1044
1039
1023
1023
1050
1040
1047
1051
1043
1023
1042
1023
1023
1023
1023
1023
1023
1023
1023
1040
1023
1023
1047
1023
1023
1023
1022
1023
1023
1023
1023
1023
1022
1023
1023
1023
1023
1023
1021
1018
1023
1023
1023
1023
1023
1023
1023
1019
1023
1023
1023
1023
1023
1017
1018
1023
1023
1021
1023
1023
1023
1023
1023
1023
1015
1023
1023
1023
1017
1023
1023
1023
1017
1023
1023
1021
1023
1018
1023
1020
1022
1023
1021
1016
1022
1019
1018
1018
1019
1023
1015
1018
1023
1022
1015
1023
1023
1023
1012
1019
1016
1021
1014
1014
1020
1021
1016
1017
1023
1018
1023
1023
1009
1014
1020
1012
1011
1007
1010
1013
1015
1010
1016
1022
1011
1021
1016
1012
1010
1012
1010
1013
1006
1010
1007
1011
1002
1007
1014
1009
1011
1006
997
1010
1011
1019
1004
1006
989
999
999
1000
999
996
994
994
994
1003
994
997
997
1001
998
1005
998
996
999
997
992
992
1000
993
993
993
997
983
981
990
983
991
991
989
986
990
983
987
984
983
991
983
986
995
982
976
980
980
983
980
971
988
989
985
979
982
984
984
988
988
989
999
988
980
986
998
993
986
990
990
995
996
998
999
1002
1009
1012
1020
1023
1023
1023
1023
1023
1023
1023
1048
1055
1055
1063
1072
1083
1082
1094
1101
1099
1098
1106
1120
1123
1125
1140
1142
1143
1157
1171
1175
1177
1187
1195
1201
1210
1216
1221
1235
1231
1247
1252
1261
1264
1275
1279
1279
1300
1305
1310
1320
1326
1335
1343
1343
1359
1367
1375
1376
1385
1398
1390
1400
1411
1410
1416
1424
1428
1439
1437
1456
1453
1461
1458
1469
1474
1470
1477
1475
1470
1476
1480
1479
1480
1493
1492
1491
1493
1491
1497
1492
1496
1501
1504
1490
1497
1498
1495
1485
1495
1492
1495
1497
1490
1498
1490
1490
1495
1493
1482
1482
1470
1487
1477
1479
1476
1479
1479
1472
1474
1468
1464
1471
1465
1458
1467
1459
1452
1453
1448
1452
1444
1442
1437
1444
1447
1439
1451
1430
1436
1439
1430
1428
1423
1428
1431
1422
1418
1416
1420
1419
1419
1414
1408
1412
1421
1415
1408
1408
1406
1413
1404
1402
1400
1398
1399
1407
1388
1386
1386
1393
1388
1384
1382
1384
1389
1378
1378
1374
1380
1373
1381
1366
1362
1364
1365
1359
1356
1356
1356
1365
1352
1350
1343
1349
1352
1353
1336
1332
1330
1330
1326
1321
1324
1324
1319
1318
1311
1317
1316
1311
1317
1308
1302
1308
1300
1296
1293
1290
1295
1295
1279
1279
1279
1277
1279
1295
1274
1274
1279
1279
1273
1276
1270
1277
1279
1266
1264
1263
1266
1271
1266
1262
1263
1269
1268
1258
1260
1261
1255
1257
1256
1246
1258
1249
1267
1252
1246
1252
1257
1258
1254
1250
1254
1261
1255
1250
1246
1246
1251
1259
1246
1242
1246
1247
1246
1245
1244
1248
1251
1247
1242
1242
1239
1246
1244
1240
1238
1238
1239
1239
1239
1240
1238
1245
1243
1239
1240
1238
1246
1251
1233
1230
1233
1237
1234
1231
1234
1229
1231
1234
1231
1236
1230
1237
1240
1228
1228
1229
1227
1226
1225
1222
1223
1223
1222
1220
1218
1216
1223
1214
1216
1216
1219
1213
1213
1211
1212
1213
1211
1203
1202
1202
1200
1216
1200
1198
1198
1201
1200
1197
1196
1197
1191
1191
1186
1183
1182
1187
1192
1178
1172
1176
1183
1183
1177
1180
1172
1171
1172
1168
1174
1166
1162
1169
1164
1154
1162
1151
1151
1157
1159
1151
1150
1148
1151
1154
1151
1146
1151
1150
1133
1133
1138
1130
1135
1137
1134
1127
1130
1133
1134
1132
1126
1135
1127
1124
1122
1119
1114
1119
1119
1116
1110
1114
1115
1106
1111
1108
1113
1098
1112
1106
1091
1099
1103
1086
1095
1094
1096
1095
1092
1092
1099
1097
1088
1098
1092
1087
1090
1089
1086
1087
1080
1080
1083
1075
1076
1083
1079
1072
1080
1076
1079
1071
1073
1076
1071
1064
1058
1069
1063
1060
1071
1063
1057
1058
1059
1055
1062
1055
1060
1063
1055
1059
1054
1056
1052
1055
1051
1044
1046
1047
1044
1049
1052
1047
1047
1042
1049
1045
1046
1043
1049
1023
1042
1042
1023
1023
1023
1023
1023
1023
1023
1023
1023
1023
1023
1023
1023
1023
1023
1023
1023
1021
1021
1023
1023
1023
1023
1022
1023
1023
1023
1014
1022
1022
1021
1018
1020
1016
1007
1018
1016
1017
1018
1015
1021
1014
1008
1022
1012
1014
1017
1023
1014
1015
1008
1008
1013
1006
1006
1015
1009
997
1004
1014
1011
1004
1006
1005
999
1002
1008
1005
991
996
1000
1008
994
998
998
998
1008
1005
1004
1012
1007
1002
1002
1010
1001
996
1007
1001
992
998
1001
993
993
996
998
998
999
998
994
993
988
996
998
1007
997
992
990
991
991
992
996
991
990
994
991
991
986
997
998
996
1006
1004
994
985
986
978
985
986
984
973
984
983
986
980
983
986
983
982
999
999
988
980
988
982
986
982
975
986
984
983
983
976
977
978
972
974
988
977
978
982
983
983
977
974
972
978
975
973
975
968
969
968
965
969
975
973
964
974
979
975
975
975
974
974
974
975
975
963
973
966
965
966
975
966
960
972
970
970
973
973
967
972
967
970
984
984
971
972
969
975
983
974
970
980
980
978
979
988
980
988
991
991
995
1002
998
1001
1013
1019
1014
1014
1023
1018
1023
1023
1023
1050
1047
1059
1071
1079
1073
1087
1093
1097
1102
1111
1114
1121
1125
1126
1134
1149
1139
1159
1168
1168
1177
1193
1188
1196
1205
1214
1221
1225
1226
1236
1247
1248
1255
1271
1268
1279
1279
1279
1303
1302
1310
1320
1328
1340
1343
1353
1352
1363
1370
1383
1385
1391
1390
1400
1404
1415
1421
1423
1436
1439
1445
1448
1453
1462
1473
1475
1475
1474
1478
1484
1494
1497
1491
1502
1501
1507
1507
1520
1510
1519
1522
1519
1514
1516
1514
1521
1517
1521
1524
1517
1525
1525
1530
1518
1525
1527
1525
1518
1522
1518
1519
1516
1517
1518
1517
1506
1515
1511
1510
1515
1521
1506
1502
1505
1506
1507
1501
1499
1495
1503
1496
1496
1500
1490
1501
1495
1488
1488
1491
1488
1487
1485
1484
1479
1485
1482
1483
1486
1481
1487
1473
1470
1478
1481
1475
1469
1468
1472
1477
1467
1464
1460
1458
1461
1467
1456
1450
1456
1457
1452
1453
1448
1452
1447
1445
1450
1440
1444
1435
1448
1433
1426
1434
1430
1416
1429
1421
1424
1421
1421
1412
1412
1414
1415
1423
1408
1398
1407
1396
1390
1391
1394
1392
1396
1384
1385
1383
1383
1385
1391
1370
1372
1363
1370
1362
1365
1358
1359
1352
1354
1350
1351
1351
1355
1343
1348
1349
1347
1347
1342
1341
1336
1341
1331
1330
1325
1327
1330
1339
1325
1322
1324
1333
1326
1321
1316
1318
1319
1311
1318
1311
1314
1313
1321
1310
1302
1308
1311
1304
1309
1306
1308
1311
1302
1306
1303
1300
1305
1311
1297
1294
1293
1301
1297
1295
1293
1300
1301
1293
1294
1293
1298
1297
1301
1279
1279
1293
1279
1279
1279
1279
1279
1279
1290
1279
1279
1279
1293
1297
1279
1279
1279
1277
1273
1277
1276
1279
1277
1278
1276
1276
1279
1279
1272
1272
1272
1277
1277
1267
1272
1271
1271
1258
1266
1265
1263
1268
1277
1256
1262
1260
1263
1259
1258
1255
1254
1255
1255
1256
1247
1248
1253
1259
1246
1242
1246
1246
1240
1240
1236
1239
1239
1243
1232
1234
1233
1235
1245
1228
1222
1228
1227
1223
1225
1222
1223
1223
1222
1213
1212
1205
1216
1221
1206
1198
1208
1204
1202
1205
1200
1204
1207
1200
1192
1192
1175
1195
1199
1181
1183
1189
1185
1181
1179
1174
1183
1183
1176
1174
1176
1169
1177
1170
1162
1166
1167
1170
1158
1161
1164
1159
1161
1154
1156
1151
1153
1167
1151
1142
1146
1151
1149
1141
1144
1136
1143
1143
1136
1136
1134
1139
1146
1134
1130
1130
1138
1128
1121
1122
1126
1127
1129
1122
1120
1113
1122
1131
1116
1112
1116
1118
1101
1113
1111
1112
1111
1113
1100
1103
1101
1109
1113
1099
1100
1105
1103
1095
1100
1096
1100
1103
1098
1096
1094
1092
1097
1103
1087
1086
1092
1087
1091
1085
1086
1087
1089
1086
1084
1084
1081
1076
1077
1072
1080
1082
1079
1080
1071
1076
1075
1077
1080
1073
1076
1068
1085
1070
1068
1068
1075
1069
1070
1064
1068
1063
1071
1064
1062
1068
1069
1076
1062
1055
1060
1067
1061
1055
1055
1061
1055
1055
1054
1054
1053
1060
1064
1052
1023
1054
1052
1055
1053
1047
1052
1045
1051
1045
1048
1044
1050
1058
1045
1023
1054
1046
1053
1045
1043
1045
1043
1044
1023
1042
1023
1045
1051
1048
1023
1043
1023
1023
1023
1023
1023
1023
1023
1023
1042
1023
1023
1023
1012
1023
1023
1023
1023
1023
1023
1023
1023
1023
1023
1023
1023
1023
1023
1022
1023
1023
1021
1023
1021
1023
1023
1023
1023
1019
1023
1023
1023
1023
1020
1020
1023
1019
1016
1018
1020
1015
1023
1019
1015
1013
1023
1023
1021
1010
1016
1018
1017
1013
1008
1014
1015
1006
1006
1015
1005
1013
1023
1013
1004
1018
1023
1010
1007
1004
1010
1005
1000
1002
1007
1003
1007
1013
1003
1000
1003
1004
1001
1001
999
999
999
997
995
999
998
996
999
1003
990
990
996
994
995
993
993
990
991
995
991
992
997
997
989
985
988
999
986
982
986
991
989
991
988
984
988
991
990
992
996
998
993
999
999
999
994
988
1000
997
999
998
1004
1004
1007
1017
1018
1015
1023
1021
1045
1023
1023
1044
1055
1053
1061
1062
1070
1071
1079
1080
1086
1102
1109
1121
1119
1104
1124
1135
1133
1135
1149
1151
1151
1167
1170
1172
1188
1201
1209
1205
1206
1214
1229
1237
1241
1240
1252
1253
1273
1264
1279
1271
1279
1301
1293
1302
1323
1318
1331
1332
1340
1348
1351
1363
1371
1378
1372
1385
1395
1393
1398
1407
1418
1423
1421
1428
1437
1447
1448
1449
1462
1458
1467
1467
1466
1469
1479
1479
1486
1485
1490
1493
1499
1498
1501
1506
1502
1509
1507
1502
1512
1511
1503
1510
1504
1508
1508
1513
1506
1511
1514
1515
1513
1513
1502
1502
1507
1500
1497
1496
1500
1495
1495
1488
1491
1490
1491
1498
1493
1482
1482
1490
1483
1479
1478
1476
1473
1477
1472
1476
1463
1469
1473
1472
1458
1464
1463
1469
1461
1460
1462
1457
1450
1457
1458
1444
1449
1449
1443
1436
1442
1442
1445
1439
1437
1428
1439
1434
1439
1439
1428
1439
1431
1426
1424
1430
1422
1427
1420
1421
1415
1423
1418
1416
1418
1404
1413
1405
1398
1393
1401
1396
1399
1389
1388
1383
1389
1384
1391
1392
1387
1384
1385
1370
1376
1369
1370
1359
1365
1356
1351
1359
1354
1357
1350
1357
1357
1353
1342
1342
1343
1339
1337
1341
1340
1333
1335
1330
1334
1324
1329
1335
1331
1316
1322
1322
1331
1321
1321
1319
1311
1311
1310
1313
1319
1308
1323
1308
1306
1315
1311
1306
1311
1302
1310
1304
1304
1297
1303
1302
1300
1311
1298
1304
1299
1300
1300
1301
1298
1301
1295
1299
1293
1292
1295
1295
1292
1279
1298
1299
1298
1279
1295
1293
1301
1289
1296
1294
1295
1294
1304
1279
1279
1300
1293
1291
1301
1279
1279
1287
1279
1279
1279
1279
1279
1295
1279
1278
1279
1279
1278
1279
1278
1276
1279
1279
1278
1278
1279
1279
1291
1276
1268
1278
1275
1274
1272
1268
1270
1271
1265
1265
1260
1266
1271
1273
1260
1254
1267
1259
1255
1257
1255
1254
1249
1248
1249
1248
1245
1247
1253
1236
1240
1242
1238
1230
1237
1234
1237
1234
1226
1224
1229
1228
1229
1220
1218
1214
1220
1218
1214
1212
1212
1220
1214
1210
1204
1204
1201
1217
1199
1196
1196
1201
1195
1183
1190
1193
1191
1188
1186
1181
1185
1189
1190
1172
1168
1176
1181
1172
1167
1173
1173
1167
1167
1168
1166
1151
1165
1175
1160
1156
1151
1151
1151
1151
1148
1150
1151
1144
1143
1148
1148
1149
1151
1142
1136
1143
1139
1136
1135
1132
1135
1149
1128
1124
1126
1125
1125
1135
1122
1124
1127
1121
1112
1119
1114
1119
1113
1114
1108
1113
1109
1117
1105
1106
1106
1110
1115
1105
1103
1103
1103
1103
1098
1097
1097
1100
1109
1090
1086
1094
1093
1090
1091
1090
1089
1087
1092
1088
1090
1086
1091
1095
1079
1078
1078
1083
1074
1077
1076
1081
1079
1082
1080
1077
1073
1081
1084
1066
1068
1070
1072
1068
1069
1066
1071
1071
1073
1068
1061
1068
1075
1081
1066
1064
1071
1068
1066
1060
1062
1068
1063
1064
1058
1062
1060
1070
1076
1060
1058
1067
1062
1062
1055
1055
1063
1065
1054
1055
1055
1050
1058
1058
1052
1044
1065
1058
1054
1055
1060
1055
1059
1052
1049
1050
1052
1068
1047
1044
1052
1055
1054
1051
1052
1054
1055
1053
1050
1047
1049
1053
1058
1047
1042
1044
1050
1044
1039
1048
1046
1053
1053
1023
1044
1041
1050
1055
1023
1023
1023
1023
1023
1023
1023
1023
1023
1023
1023
1023
1023
1043
1048
1023
1023
1023
1023
1023
1023
1023
1023
1023
1023
1023
1023
1023
1023
1023
1023
1023
1023
1023
1023
1023
1023
1023
1023
1023
1005
1023
1020
1020
1021
1016
1020
1023
1019
1022
1017
1014
1019
1019
1010
1011
1014
1012
1023
1015
1008
1012
1017
1016
1018
1012
1012
1011
1016
1010
1009
998
1009
1015
1012
1002
1012
1008
1008
1008
1016
1012
1015
1007
1008
1007
1007
1018
1023
1021
1014
1023
1023
1023
1023
1043
1044
1043
1023
1048
1055
1062
1060
1073
1069
1068
1078
1082
1084
1093
1098
1100
1107
1109
1125
1126
1130
1134
1147
1148
1146
1159
1164
1166
1175
1182
1183
1191
1200
1209
1213
1223
1225
1237
1237
1250
1250
1258
1263
1269
1273
1279
1279
1291
1301
1301
1310
1311
1325
1322
1344
1342
1352
1352
1357
1372
1375
1375
1378
1389
1391
1396
1409
1412
1414
1426
1426
1438
1438
1451
1456
1457
1460
1464
1465
1469
1474
1487
1480
1478
1486
1490
1492
1501
1507
1508
1511
1510
1506
1519
1516
1510
1519
1508
1514
1516
1516
1516
1517
1517
1513
1525
1516
1521
1519
1518
1516
1519
1516
1514
1510
1508
1506
1509
1509
1508
1511
1506
1503
1501
1502
1500
1505
1496
1498
1494
1490
1490
1493
1491
1484
1479
1480
1485
1479
1479
1479
1484
1470
1476
1471
1475
1466
1469
1477
1463
1460
1458
1461
1457
1456
1467
1454
1446
1456
1454
1451
1450
1451
1447
1447
1442
1438
1442
1441
1434
1439
1432
1430
1434
1432
1430
1423
1431
1428
1429
1418
1418
1412
1415
1410
1417
1408
1398
1404
1402
1398
1400
1398
1397
1397
1388
1392
1388
1388
1383
1373
1377
1370
1368
1370
1366
1365
1368
1364
1365
1354
1353
1355
1358
1348
1365
1348
1346
1340
1342
1340
1343
1343
1336
1317
1320
1313
1317
1318
1318
1333
1314
1320
1322
1320
1314
1316
1317
1311
1306
1306
1306
1303
1307
1302
1300
1298
1306
1300
1302
1298
1303
1295
1300
1292
1290
1278
1279
1279
1299
1279
1279
1294
1279
1294
1293
1294
1279
1279
1279
1279
1279
1279
1276
1290
1278
1279
1278
1275
1279
1279
1279
1276
1279
1279
1279
1277
1279
1274
1279
1270
1268
1274
1277
1277
1272
1269
1276
1271
1272
1275
1279
1265
1274
1273
1271
1263
1262
1264
1262
1261
1261
1260
1263
1258
1263
1270
1262
1265
1263
1254
1258
1252
1250
1257
1253
1244
1247
1255
1248
1253
1252
1244
1252
1249
1238
1244
1240
1251
1242
1231
1236
1231
1235
1232
1235
1234
1229
1235
1225
1222
1226
1226
1227
1221
1225
1220
1213
1217
1210
1212
1204
1215
1217
1211
1206
1202
1206
1207
1199
1205
1196
1197
1203
1192
1191
1186
1192
1194
1189
1178
1180
1182
1183
1181
1183
1180
1172
1177
1180
1180
1169
1171
1171
1171
1164
1158
1164
1167
1161
1162
1157
1151
1154
1157
1164
1150
1158
1155
1142
1128
1142
1144
1145
1140
1146
1135
1141
1138
1139
1142
1132
1131
1135
1124
1126
1124
1127
1126
1125
1121
1127
1127
1128
1125
1127
1106
1127
1123
1112
1112
1118
1113
1111
1113
1110
1107
1110
1099
1103
1102
1103
1109
1105
1100
1100
1101
1102
1096
1102
1097
1091
1095
1104
1087
1088
1086
1097
1091
1084
1082
1076
1093
1087
1091
1087
1087
1087
1087
1084
1078
1081
1083
1080
1070
1066
1075
1077
1074
1081
1076
1055
1072
1075
1078
1066
1068
1075
1056
1070
1062
1063
1066
1063
1067
1063
1069
1064
1069
1070
1058
1062
1062
1064
1058
1055
1055
1061
1054
1054
1053
1059
1058
1061
1066
1046
1059
1055
1048
1054
1050
1053
1051
1053
1052
1039
1047
1048
1049
1046
1046
1059
1053
1044
1050
1048
1049
1045
1048
1047
1045
1046
1023
1046
1023
1046
1051
1047
1023
1048
1023
1049
1039
1043
1023
1023
1023
1023
1044
1040
1023
1043
1044
1023
1023
1023
1023
1023
1023
1022
1023
1023
1023
1042
1023
1023
1023
1022
1023
1023
1010
1023
1023
1023
1023
1022
1022
1023
1023
1020
1016
1023
1020
1023
1020
1021
1023
1023
1022
1023
1018
1022
1023
1023
1014
1023
1022
1012
1022
1016
1018
1020
1022
1016
1011
1013
1010
1019
1019
1021
1023
1014
1008
1014
1019
1008
1007
1008
1012
1011
1007
1008
1007
1004
1011
1016
1007
1004
1010
1009
1003
1005
1002
1006
1011
1004
994
1006
1002
999
1007
999
994
996
998
1002
998
1003
1002
997
999
991
978
995
990
993
994
1001
978
988
990
991
985
987
991
998
1000
999
999
992
990
1007
993
993
993
983
983
984
998
990
986
983
985
984
989
983
984
986
991
988
985
991
985
983
980
984
978
981
981
994
981
986
985
999
982
994
991
1006
998
1004
1013
999
1002
1006
1010
1012
1017
1019
1022
1023
1023
1023
1042
1047
1049
1055
1061
1072
1074
1078
1082
1086
1098
1100
1108
1112
1117
1130
1132
1137
1151
1148
1158
1160
1168
1174
1188
1191
1191
1190
1208
1217
1230
1227
1245
1247
1252
1262
1262
1267
1268
1279
1279
1299
1298
1304
1311
1311
1324
1335
1336
1334
1348
1350
1360
1369
1375
1382
1383
1390
1400
1405
1414
1416
1426
1429
1426
1436
1446
1444
1455
1460
1468
1477
1468
1487
1485
1494
1495
1504
1501
1494
1502
1509
1508
1513
1519
1516
1527
1520
1525
1529
1532
1528
1536
1533
1536
1530
1532
1530
1537
1529
1532
1526
1530
1529
1529
1536
1532
1536
1522
1536
1528
1527
1522
1525
1518
1519
1513
1514
1515
1509
1511
1517
1505
1502
1512
1504
1504
1502
1503
1500
1501
1494
1490
1497
1487
1488
1485
1485
1482
1486
1485
1487
1485
1487
1477
1477
1475
1474
1475
1472
1466
1471
1465
1462
1464
1460
1454
1455
1461
1460
1461
1453
1455
1449
1452
1445
1441
1440
1438
1436
1435
1436
1437
1435
1431
1436
1426
1429
1423
1422
1425
1425
1416
1416
1409
1414
1410
1409
1407
1401
1401
1398
1401
1391
1398
1396
1399
1382
1390
1381
1379
1376
1380
1377
1375
1366
1368
1369
1368
1362
1365
1361
1350
1358
1356
1355
1355
1352
1350
1351
1343
1339
1349
1342
1334
1349
1336
1330
1342
1334
1332
1333
1331
1332
1333
1322
1323
1327
1324
1318
1327
1320
1316
1326
1322
1318
1321
1323
1319
1319
1314
1314
1310
1311
1309
1319
1308
1302
1309
1309
1309
1317
1315
1308
1317
1310
1309
1305
1308
1306
1309
1301
1308
1306
1304
1301
1301
1306
1302
1301
1304
1300
1300
1303
1300
1311
1296
1304
1298
1298
1293
1301
1302
1303
1294
1299
1294
1300
1300
1295
1295
1279
1298
1294
1298
1291
1299
1292
1287
1279
1279
1279
1279
1279
1295
1279
1279
1279
1279
1279
1279
1279
1279
1279
1278
1272
1272
1276
1274
1279
1269
1266
1276
1268
1268
1273
1273
1268
1269
1259
1259
1261
1261
1255
1269
1254
1246
1258
1254
1250
1253
1239
1252
1255
1242
1240
1229
1245
1242
1253
1233
1228
1230
1234
1228
1236
1238
1236
1224
1224
1222
1221
1223
1220
1231
1214
1214
1221
1214
1209
1215
1214
1213
1205
1208
1199
1204
1206
1202
1196
1190
1204
1201
1190
1190
1193
1183
1191
1183
1186
1183
1183
1180
1193
1180
1178
1183
1191
1179
1173
1172
1174
1172
1166
1168
1167
1166
1165
1178
1163
1160
1168
1167
1162
1161
1156
1158
1149
1151
1151
1149
1150
1146
1160
1145
1146
1150
1143
1146
1148
1146
1143
1149
1138
1138
1135
1134
1133
1144
1132
1132
1135
1133
1124
1135
1130
1132
1130
1130
1125
1128
1127
1120
1133
1118
1126
1127
1122
1121
1125
1118
1125
1116
1115
1116
1121
1120
1114
1113
1108
1114
1119
1113
1109
1109
1109
1111
1105
1106
1103
1106
1108
1128
1102
1098
1106
1107
1104
1100
1100
1096
1103
1096
1099
1098
1095
1099
1111
1098
1096
1106
1103
1094
1097
1092
1080
1095
1087
1096
1087
1089
1093
1101
1087
1084
1087
1093
1092
1093
1080
1089
1087
1087
1079
1084
1085
1091
1095
1082
1078
1091
1085
1082
1087
1083
1085
1081
1080
1081
1080
1082
1084
1091
1074
1084
1084
1081
1078
1084
1074
1079
1076
1075
1073
1080
1074
1081
1071
1064
1071
1071
1078
1070
1069
1076
1071
1071
1072
1069
1070
1073
1078
1061
1064
1062
1071
1065
1063
1062
1070
1063
1059
1064
1060
1062
1069
1063
1060
1056
1058
1063
1055
1053
1050
1060
1055
1053
1050
1052
1052
1061
1066
1052
1044
1055
1055
1046
1023
1044
1048
1047
1023
1050
1023
1047
1050
1055
1041
1023
1050
1043
1023
1044
1023
1044
1043
1023
1023
1023
1023
1023
1045
1012
1023
1023
1023
1023
1023
1023
1023
1023
1022
1023
1023
1023
1023
1020
1020
1018
1023
1023
1018
1023
1023
1023
1023
1023
1023
1023
1023
1023
1023
1022
1023
1023
1023
1023
1023
1044
1047
1051
1048
1052
1058
1070
1079
1063
1066
1072
1078
1082
1085
1092
1100
1107
1103
1112
1122
